[ 1.53882015 -0.45382215] [ 2.72339751 -1.6823248 ] [ 3.08716536 -0.12110268] [ 2.90061775  1.10739997] [ 1.70671301  0.41636723] [ 0.51280827  1.36333802] [-0.25203696  2.13115218] [-0.0841441   2.84777872] [-0.38262029  3.69237429] [-0.10279886  3.10371677] [-0.36396553  1.51690085] [-0.28934648 -0.12110268] [-1.18477503 -0.30025932] [-1.09150123 -0.1978841 ] [-1.09150123 -0.42822834] [-1.31535837 -0.40263454] [-1.57652503 -0.42822834] [-1.31535837 -0.55619737] [-1.46459646 -0.60738498] [-1.83769169 -0.83772923] [-2.19213216 -0.78654162] [-2.19213216 -0.99129206] [-2.39733454 -1.09366728] [-2.62119167 -1.1960425 ] [-2.58388215 -1.29841772] [-2.67715596 -1.45198055] [-2.67715596 -1.57994958] [-2.39733454 -1.6823248 ] [-2.4159893  -1.86148143] [-2.1734774  -1.83588763] [-1.6884536  -1.65673099] [-1.40863217 -1.57994958] [-1.14746551 -1.47757436] [-0.88629885 -0.96569825] [-0.38262029 -0.91451064] [-0.4758941  -0.81213542] [-0.02817982 -0.58179117] [-0.0841441  -0.53060356] [-0.04683458 -0.37704073] [ 0.13971304 -0.24907171] [ 0.10240351 -0.17229029] [ 0.27029637 -0.12110268] [ 0.41953446  0.        ] [ 0.06509399 -0.04432127] [ 0.41953446  0.00686635] [ 0.49415351  0.        ] [ 0.2516416   0.13483537] [ 0.58742731  0.00686635] [ 0.47549874  0.08364776] [ 0.55011779  0.13483537] [ 0.62473684  0.21161679] [ 0.75532017  0.05805396] [ 0.62473684  0.2628044 ] [ 0.53146303  0.18602298] [ 0.36357017  0.39077342] [ 0.71801064  0.00686635] [ 0.36357017 -0.32585312] [ 0.34491541 -0.1978841 ] [ 0.28895113 -0.24907171] [ 0.10240351 -0.14669649] [ 0.32626065 -0.30025932] [ 0.1583678  -0.14669649] [ 0.2516416   0.05805396] [ 0.45684398  0.13483537] [ 0.47549874 -0.01872746] [ 0.  0.] [ 0.  0.] [ 0.  0.] [ 0.  0.] [ 0.  0.] [ 0.  0.] [ 0.  0.] [ 0.  0.] [ 0.  0.] [ 0.  0.] [ 0.  0.] [ 0.  0.] [ 0.  0.] [ 0.  0.] [ 0.  0.] [ 0.  0.] [ 0.  0.] [ 0.  0.] [ 0.  0.] [ 0.  0.] [ 0.  0.] [ 0.  0.] [ 0.  0.] [ 0.  0.] [ 0.  0.] [ 0.  0.] [ 0.  0.] [ 0.  0.] [ 0.  0.] [ 0.  0.] [ 0.  0.] [ 0.  0.] [ 0.  0.] [ 0.  0.] [ 0.  0.] [ 0.  0.] [ 0.  0.] [ 0.  0.] [ 0.  0.] [ 0.  0.] [ 0.  0.] [ 0.  0.] [ 0.  0.] [ 0.  0.] [ 0.  0.] [ 0.  0.] [ 0.  0.] [ 0.  0.] [ 0.  0.] [ 0.  0.] [ 0.  0.] [ 0.  0.] [ 0.  0.] [ 0.  0.] [ 0.  0.] [ 0.  0.] [ 0.  0.] [ 0.  0.] [ 0.  0.] [ 0.  0.] [ 0.  0.] [ 0.  0.] [ 0.  0.] [ 0.  0.] [ 0.  0.] [ 0.  0.] [ 0.  0.] [ 0.  0.] [ 0.  0.] [ 0.  0.] [ 0.  0.] [ 0.  0.] [ 0.  0.] [ 0.  0.] [ 0.  0.] [ 0.  0.] [ 0.  0.] [ 0.  0.] [ 0.  0.] [ 0.  0.] [ 0.  0.] [ 0.  0.] [ 0.  0.] [ 0.  0.] [ 0.  0.] [ 0.  0.] [ 0.  0.]
[ 1.09110587 -0.17229029] [ 2.04249871 -1.24723011] [ 3.22707607 -1.27282391] [ 2.17308204  0.35238272] [ 1.03514159  0.69789909] [-0.15876315  1.67046368] [-0.51320362  2.33590262] [-0.73706076  3.2316858 ] [-0.64378695  4.28103181] [-0.94226313  4.53696987] [-0.88629885  2.95015394] [-0.51320362  1.31215041] [-0.49454886 -0.09550888] [-1.01688218  0.00686635] [-0.88629885 -0.04432127] [-0.90495361 -0.12110268] [-0.92360837 -0.01872746] [-0.69975123 -0.01872746] [-1.0541917  -0.06991507] [-1.24073932 -0.17229029] [-1.0541917  -0.06991507] [-1.48325122 -0.40263454] [-1.76307264 -0.53060356] [-1.9309655  -0.68416639] [-2.04289407 -0.88891684] [-1.81903693 -1.04247967] [-2.11751311 -1.17044869] [-2.09885835 -1.47757436] [-2.09885835 -1.45198055] [-1.65114407 -1.63113719] [-1.57652503 -1.75910621] [-1.09150123 -1.55435577] [-1.01688218 -1.34960533] [-0.40127505 -1.40079294] [-0.36396553 -1.1960425 ] [-0.2333822  -0.78654162] [ 0.28895113 -0.86332303] [ 0.21433208 -0.55619737] [-0.0841441  -0.45382215] [ 0.36357017 -0.47941595] [ 0.27029637 -0.14669649] [ 0.34491541 -0.1978841 ] [ 0.28895113 -0.1978841 ] [ 0.47549874 -0.09550888] [ 0.36357017 -0.01872746] [ 0.51280827  0.18602298] [ 0.66204636  0.05805396] [ 0.60608207  0.31399201] [ 0.71801064  0.33958581] [ 0.68070112  0.46755484] [ 0.69935588  0.36517962] [ 1.01648683  0.        ] [ 1.3709273   0.08364776] [ 1.07245111 -0.01872746] [ 0.94186778  0.10924157] [ 1.24034397  0.05805396] [ 0.77397493  0.08364776] [ 0.97917731  0.00686635] [ 1.16572492  0.21161679] [ 0.97917731  0.21161679] [ 0.96052254  0.23721059] [ 0.96052254  0.00686635] [ 0.  0.] [ 0.  0.] [ 0.  0.] [ 0.  0.] [ 0.  0.] [ 0.  0.] [ 0.  0.] [ 0.  0.] [ 0.  0.] [ 0.  0.] [ 0.  0.] [ 0.  0.] [ 0.  0.] [ 0.  0.] [ 0.  0.] [ 0.  0.] [ 0.  0.] [ 0.  0.] [ 0.  0.] [ 0.  0.] [ 0.  0.] [ 0.  0.] [ 0.  0.] [ 0.  0.] [ 0.  0.] [ 0.  0.] [ 0.  0.] [ 0.  0.] [ 0.  0.] [ 0.  0.] [ 0.  0.] [ 0.  0.] [ 0.  0.] [ 0.  0.] [ 0.  0.] [ 0.  0.] [ 0.  0.] [ 0.  0.] [ 0.  0.] [ 0.  0.] [ 0.  0.] [ 0.  0.] [ 0.  0.] [ 0.  0.] [ 0.  0.] [ 0.  0.] [ 0.  0.] [ 0.  0.] [ 0.  0.] [ 0.  0.] [ 0.  0.] [ 0.  0.] [ 0.  0.] [ 0.  0.] [ 0.  0.] [ 0.  0.] [ 0.  0.] [ 0.  0.] [ 0.  0.] [ 0.  0.] [ 0.  0.] [ 0.  0.] [ 0.  0.] [ 0.  0.] [ 0.  0.] [ 0.  0.] [ 0.  0.] [ 0.  0.] [ 0.  0.] [ 0.  0.] [ 0.  0.] [ 0.  0.] [ 0.  0.] [ 0.  0.] [ 0.  0.] [ 0.  0.] [ 0.  0.] [ 0.  0.] [ 0.  0.] [ 0.  0.] [ 0.  0.] [ 0.  0.] [ 0.  0.] [ 0.  0.] [ 0.  0.] [ 0.  0.] [ 0.  0.] [ 0.  0.] [ 0.  0.] [ 0.  0.]
[ 0.71801064  0.39077342] [ 0.49415351  0.13483537] [ 1.31496301 -0.42822834] [ 2.22904633 -1.73351241] [ 2.91927251 -0.14669649] [ 2.11711776  1.47851014] [ 0.92321302  0.87705572] [-0.21472743  1.92640174] [ 0.17702256  2.54065306] [-0.28934648  3.46203005] [-0.25203696  4.43459464] [-0.30800124  4.02509376] [-0.12145363  2.38709023] [-0.0841441  0.7490867] [-0.94226313 -0.09550888] [-0.75571552 -0.06991507] [-0.9609179  -0.14669649] [-1.12881075 -0.27466551] [-1.42728693 -0.30025932] [-1.52056074 -0.27466551] [-1.35266789 -0.2234779 ] [-1.4459417  -0.55619737] [-1.87500121 -0.65857259] [-2.24809644 -0.81213542] [-1.91231074 -0.99129206] [-2.32271549 -1.11926108] [-2.00558454 -1.09366728] [-1.6884536  -1.47757436] [-1.81903693 -1.42638675] [-1.48325122 -1.40079294] [-1.03553694 -1.60554338] [-0.718406   -1.42638675] [-0.41992981 -1.37519914] [ 0.12105827 -1.1960425 ] [ 0.43818922 -0.96569825] [ 0.6433916  -0.81213542] [ 0.75532017 -0.63297878] [ 1.05379635 -0.60738498] [ 1.09110587 -0.35144693] [ 1.1284154  -0.32585312] [ 1.20303444 -0.01872746] [ 1.18437968  0.05805396] [ 1.10976064  0.13483537] [ 1.18437968  0.2628044 ] [ 1.1284154   0.39077342] [ 1.25899873  0.44196103] [ 0.90455826  0.39077342] [ 0.75532017  0.69789909] [ 0.84859397  0.51874245] [ 1.24034397  0.31399201] [ 1.3709273   0.08364776] [ 1.25899873 -0.09550888] [ 0.69935588  0.08364776] [ 0.99783207  0.00686635] [ 0.69935588  0.08364776] [ 1.25899873  0.18602298] [ 1.01648683  0.00686635] [ 0.92321302  0.13483537] [ 1.16572492  0.31399201] [ 0.  0.] [ 0.  0.] [ 0.  0.] [ 0.  0.] [ 0.  0.] [ 0.  0.] [ 0.  0.] [ 0.  0.] [ 0.  0.] [ 0.  0.] [ 0.  0.] [ 0.  0.] [ 0.  0.] [ 0.  0.] [ 0.  0.] [ 0.  0.] [ 0.  0.] [ 0.  0.] [ 0.  0.] [ 0.  0.] [ 0.  0.] [ 0.  0.] [ 0.  0.] [ 0.  0.] [ 0.  0.] [ 0.  0.] [ 0.  0.] [ 0.  0.] [ 0.  0.] [ 0.  0.] [ 0.  0.] [ 0.  0.] [ 0.  0.] [ 0.  0.] [ 0.  0.] [ 0.  0.] [ 0.  0.] [ 0.  0.] [ 0.  0.] [ 0.  0.] [ 0.  0.] [ 0.  0.] [ 0.  0.] [ 0.  0.] [ 0.  0.] [ 0.  0.] [ 0.  0.] [ 0.  0.] [ 0.  0.] [ 0.  0.] [ 0.  0.] [ 0.  0.] [ 0.  0.] [ 0.  0.] [ 0.  0.] [ 0.  0.] [ 0.  0.] [ 0.  0.] [ 0.  0.] [ 0.  0.] [ 0.  0.] [ 0.  0.] [ 0.  0.] [ 0.  0.] [ 0.  0.] [ 0.  0.] [ 0.  0.] [ 0.  0.] [ 0.  0.] [ 0.  0.] [ 0.  0.] [ 0.  0.] [ 0.  0.] [ 0.  0.] [ 0.  0.] [ 0.  0.] [ 0.  0.] [ 0.  0.] [ 0.  0.] [ 0.  0.] [ 0.  0.] [ 0.  0.] [ 0.  0.] [ 0.  0.] [ 0.  0.] [ 0.  0.] [ 0.  0.] [ 0.  0.] [ 0.  0.] [ 0.  0.] [ 0.  0.] [ 0.  0.] [ 0.  0.]
[ 0.96052254  0.31399201] [ 1.33361778 -0.09550888] [ 2.37828442 -1.11926108] [ 3.56286178 -1.40079294] [ 3.16178441  0.22441369] [ 2.88196298  0.41636723] [ 1.68805824  1.13299377] [ 0.49415351  2.02877696] [ 0.38222494  2.95015394] [ 0.84859397  3.87153093] [ 0.04643923  4.2298442 ] [ 0.36357017  2.64302828] [ 0.38222494  1.00502475] [ 0.06509399 -0.27466551] [ 0.06509399 -0.37704073] [-0.41992981 -0.40263454] [-0.19607267 -0.53060356] [-0.4758941  -0.47941595] [-0.83033457 -0.50500976] [-0.84898933 -0.65857259] [-0.86764409 -0.7097602 ] [-1.46459646 -0.83772923] [-1.5392155  -0.88891684] [-1.74441788 -1.1960425 ] [-2.24809644 -1.2216363 ] [-1.72576312 -1.37519914] [-1.94962026 -1.45198055] [-1.72576312 -1.47757436] [-1.50190598 -1.93826285] [-1.42728693 -1.42638675] [-1.03553694 -1.75910621] [-0.5691679  -1.65673099] [-0.2333822  -1.55435577] [ 0.06509399 -1.29841772] [ 0.28895113 -1.37519914] [ 0.2516416  -0.94010445] [ 0.66204636 -0.73535401] [ 0.73666541 -0.47941595] [ 0.84859397 -0.27466551] [ 1.09110587 -0.04432127] [ 0.94186778  0.13483537] [ 1.05379635  0.31399201] [ 0.90455826  0.41636723] [ 1.29630825  0.18602298] [ 1.31496301  0.18602298] [ 1.24034397  0.13483537] [ 1.09110587  0.        ] [ 0.86724874  0.23721059] [ 1.07245111  0.10924157] [ 0.71801064  0.33958581] [ 1.16572492  0.10924157] [ 1.10976064  0.13483537] [ 1.03514159 -0.04432127] [ 1.09110587  0.05805396] [ 1.05379635  0.23721059] [ 0.  0.] [ 0.  0.] [ 0.  0.] [ 0.  0.] [ 0.  0.] [ 0.  0.] [ 0.  0.] [ 0.  0.] [ 0.  0.] [ 0.  0.] [ 0.  0.] [ 0.  0.] [ 0.  0.] [ 0.  0.] [ 0.  0.] [ 0.  0.] [ 0.  0.] [ 0.  0.] [ 0.  0.] [ 0.  0.] [ 0.  0.] [ 0.  0.] [ 0.  0.] [ 0.  0.] [ 0.  0.] [ 0.  0.] [ 0.  0.] [ 0.  0.] [ 0.  0.] [ 0.  0.] [ 0.  0.] [ 0.  0.] [ 0.  0.] [ 0.  0.] [ 0.  0.] [ 0.  0.] [ 0.  0.] [ 0.  0.] [ 0.  0.] [ 0.  0.] [ 0.  0.] [ 0.  0.] [ 0.  0.] [ 0.  0.] [ 0.  0.] [ 0.  0.] [ 0.  0.] [ 0.  0.] [ 0.  0.] [ 0.  0.] [ 0.  0.] [ 0.  0.] [ 0.  0.] [ 0.  0.] [ 0.  0.] [ 0.  0.] [ 0.  0.] [ 0.  0.] [ 0.  0.] [ 0.  0.] [ 0.  0.] [ 0.  0.] [ 0.  0.] [ 0.  0.] [ 0.  0.] [ 0.  0.] [ 0.  0.] [ 0.  0.] [ 0.  0.] [ 0.  0.] [ 0.  0.] [ 0.  0.] [ 0.  0.] [ 0.  0.] [ 0.  0.] [ 0.  0.] [ 0.  0.] [ 0.  0.] [ 0.  0.] [ 0.  0.] [ 0.  0.] [ 0.  0.] [ 0.  0.] [ 0.  0.] [ 0.  0.] [ 0.  0.] [ 0.  0.] [ 0.  0.] [ 0.  0.] [ 0.  0.] [ 0.  0.] [ 0.  0.] [ 0.  0.] [ 0.  0.] [ 0.  0.] [ 0.  0.] [ 0.  0.]
[ 1.76267729  0.39077342] [ 1.8559511   0.08364776] [ 2.78868918 -0.83772923] [ 3.97326653 -1.47757436] [ 3.60949868  0.14763227] [ 3.34833202  0.87705572] [ 2.15442728  1.05621236] [ 0.96052254  2.02877696] [ 0.51280827  2.89896633] [ 0.62473684  3.58999907] [-0.00952506  4.43459464] [ 0.06509399  3.35965483] [ 0.13971304  1.72165129] [-0.19607267  0.08364776] [-0.5691679  -0.35144693] [-0.5691679  -0.37704073] [-0.75571552 -0.35144693] [-0.9609179  -0.45382215] [-1.25939408 -0.47941595] [-1.31535837 -0.40263454] [-1.31535837 -0.53060356] [-1.72576312 -0.60738498] [-1.80038217 -0.60738498] [-2.13616787 -0.7097602 ] [-2.1734774  -0.86332303] [-2.24809644 -1.06807347] [-2.2667512 -1.1960425] [-2.11751311 -1.24723011] [-1.89365597 -1.37519914] [-2.0242393  -1.27282391] [-1.27804884 -1.34960533] [-0.90495361 -1.42638675] [-0.69975123 -1.14485489] [-0.21472743 -1.06807347] [ 0.12105827 -0.91451064] [ 0.36357017 -0.76094781] [ 0.47549874 -0.58179117] [ 0.55011779 -0.50500976] [ 0.56877255 -0.24907171] [ 0.84859397 -0.12110268] [ 0.69935588  0.10924157] [ 0.86724874  0.33958581] [ 0.73666541  0.2628044 ] [ 0.79262969  0.36517962] [ 0.34491541  0.7490867 ] [ 0.66204636  0.67230528] [ 0.69935588  0.44196103] [ 0.8859035   0.36517962] [ 1.07245111  0.21161679] [ 0.92321302  0.16042918] [ 0.49415351  0.2883982 ] [ 0.82993921  0.18602298] [ 0.69935588  0.33958581] [ 0.79262969  0.23721059] [ 0.79262969  0.00686635] [ 0.23298684  0.2883982 ] [ 0.8859035   0.31399201] [ 0.  0.] [ 0.  0.] [ 0.  0.] [ 0.  0.] [ 0.  0.] [ 0.  0.] [ 0.  0.] [ 0.  0.] [ 0.  0.] [ 0.  0.] [ 0.  0.] [ 0.  0.] [ 0.  0.] [ 0.  0.] [ 0.  0.] [ 0.  0.] [ 0.  0.] [ 0.  0.] [ 0.  0.] [ 0.  0.] [ 0.  0.] [ 0.  0.] [ 0.  0.] [ 0.  0.] [ 0.  0.] [ 0.  0.] [ 0.  0.] [ 0.  0.] [ 0.  0.] [ 0.  0.] [ 0.  0.] [ 0.  0.] [ 0.  0.] [ 0.  0.] [ 0.  0.] [ 0.  0.] [ 0.  0.] [ 0.  0.] [ 0.  0.] [ 0.  0.] [ 0.  0.] [ 0.  0.] [ 0.  0.] [ 0.  0.] [ 0.  0.] [ 0.  0.] [ 0.  0.] [ 0.  0.] [ 0.  0.] [ 0.  0.] [ 0.  0.] [ 0.  0.] [ 0.  0.] [ 0.  0.] [ 0.  0.] [ 0.  0.] [ 0.  0.] [ 0.  0.] [ 0.  0.] [ 0.  0.] [ 0.  0.] [ 0.  0.] [ 0.  0.] [ 0.  0.] [ 0.  0.] [ 0.  0.] [ 0.  0.] [ 0.  0.] [ 0.  0.] [ 0.  0.] [ 0.  0.] [ 0.  0.] [ 0.  0.] [ 0.  0.] [ 0.  0.] [ 0.  0.] [ 0.  0.] [ 0.  0.] [ 0.  0.] [ 0.  0.] [ 0.  0.] [ 0.  0.] [ 0.  0.] [ 0.  0.] [ 0.  0.] [ 0.  0.] [ 0.  0.] [ 0.  0.] [ 0.  0.] [ 0.  0.] [ 0.  0.] [ 0.  0.] [ 0.  0.] [ 0.  0.] [ 0.  0.]
[ 0.71801064  0.16042918] [ 0.81128445 -0.09550888] [ 1.99586181 -1.06807347] [ 3.18043917 -1.2216363 ] [ 2.69541537  0.40357033] [ 1.74402253  0.16042918] [ 0.55011779  1.03061855] [-0.64378695  1.90080793] [-0.326656    2.61743448] [-0.21472743  3.56440527] [-0.55051314  3.66678049] [-0.34531076  2.18233979] [-0.45723933  0.54433625] [-0.8116798  -0.37704073] [-1.11015599 -0.35144693] [-1.37132265 -0.42822834] [-1.66979884 -0.65857259] [-1.4459417  -0.58179117] [-1.89365597 -0.63297878] [-1.4459417  -0.81213542] [-2.24809644 -0.68416639] [-2.24809644 -0.83772923] [-2.2667512  -0.94010445] [-2.24809644 -1.04247967] [-2.5092631  -1.14485489] [-2.4159893  -1.24723011] [-2.49060834 -1.29841772] [-2.06154883 -1.40079294] [-1.89365597 -1.63113719] [-1.76307264 -1.32401152] [-1.24073932 -1.65673099] [-0.88629885 -1.60554338] [-0.68109647 -1.32401152] [ 0.06509399 -1.2216363 ] [ 0.13971304 -1.09366728] [ 0.36357017 -1.11926108] [ 0.19567732 -0.76094781] [ 0.94186778 -0.65857259] [ 0.68070112 -0.40263454] [ 0.92321302 -0.27466551] [ 0.94186778 -0.27466551] [ 0.99783207 -0.01872746] [ 1.03514159  0.00686635] [ 0.84859397  0.        ] [ 0.96052254  0.08364776] [ 0.92321302  0.10924157] [ 0.77397493  0.05805396] [ 0.86724874  0.18602298] [ 0.94186778  0.2628044 ] [ 0.96052254  0.13483537] [ 0.92321302  0.23721059] [ 1.05379635  0.10924157] [ 0.97917731  0.36517962] [ 1.01648683  0.33958581] [ 1.20303444 -0.06991507] [ 1.24034397 -0.1978841 ] [ 1.24034397 -0.01872746] [ 1.50151063 -0.17229029] [ 0.86724874 -0.09550888] [ 0.97917731 -0.12110268] [ 0.82993921 -0.09550888] [ 0.97917731 -0.01872746] [ 0.99783207 -0.06991507] [ 0.8859035   0.23721059] [ 0.  0.] [ 0.  0.] [ 0.  0.] [ 0.  0.] [ 0.  0.] [ 0.  0.] [ 0.  0.] [ 0.  0.] [ 0.  0.] [ 0.  0.] [ 0.  0.] [ 0.  0.] [ 0.  0.] [ 0.  0.] [ 0.  0.] [ 0.  0.] [ 0.  0.] [ 0.  0.] [ 0.  0.] [ 0.  0.] [ 0.  0.] [ 0.  0.] [ 0.  0.] [ 0.  0.] [ 0.  0.] [ 0.  0.] [ 0.  0.] [ 0.  0.] [ 0.  0.] [ 0.  0.] [ 0.  0.] [ 0.  0.] [ 0.  0.] [ 0.  0.] [ 0.  0.] [ 0.  0.] [ 0.  0.] [ 0.  0.] [ 0.  0.] [ 0.  0.] [ 0.  0.] [ 0.  0.] [ 0.  0.] [ 0.  0.] [ 0.  0.] [ 0.  0.] [ 0.  0.] [ 0.  0.] [ 0.  0.] [ 0.  0.] [ 0.  0.] [ 0.  0.] [ 0.  0.] [ 0.  0.] [ 0.  0.] [ 0.  0.] [ 0.  0.] [ 0.  0.] [ 0.  0.] [ 0.  0.] [ 0.  0.] [ 0.  0.] [ 0.  0.] [ 0.  0.] [ 0.  0.] [ 0.  0.] [ 0.  0.] [ 0.  0.] [ 0.  0.] [ 0.  0.] [ 0.  0.] [ 0.  0.] [ 0.  0.] [ 0.  0.] [ 0.  0.] [ 0.  0.] [ 0.  0.] [ 0.  0.] [ 0.  0.] [ 0.  0.] [ 0.  0.] [ 0.  0.] [ 0.  0.] [ 0.  0.] [ 0.  0.] [ 0.  0.] [ 0.  0.] [ 0.  0.]
[ 0.49415351  0.39077342] [ 0.36357017  0.13483537] [ 1.44554634 -0.65857259] [ 2.6301237  -1.50316816] [ 2.56483204  0.12203847] [ 2.35962966  0.97943094] [ 1.16572492  1.2609628 ] [-0.02817982  2.00318315] [-0.28934648  2.84777872] [-0.06548934  3.56440527] [-0.5691679  4.2298442] [-0.49454886  3.33406102] [-0.43858457  1.69605749] [-0.83033457  0.05805396] [-1.2967036  -0.06991507] [-1.22208456 -0.12110268] [-1.50190598 -0.2234779 ] [-1.57652503 -0.1978841 ] [-1.96827502 -0.27466551] [-1.9309655  -0.17229029] [-1.96827502 -0.32585312] [-2.43464406 -0.37704073] [-2.49060834 -0.42822834] [-2.62119167 -0.55619737] [-3.03159643 -0.65857259] [-2.9010131  -0.91451064] [-2.78908453 -1.01688586] [-2.78908453 -1.01688586] [-2.4159893  -1.11926108] [-2.13616787 -1.24723011] [-1.81903693 -1.24723011] [-1.35266789 -1.17044869] [-0.79302504 -1.11926108] [-0.36396553 -0.96569825] [ 0.0091297  -0.88891684] [ 0.2516416  -0.65857259] [ 0.45684398 -0.58179117] [ 0.66204636 -0.37704073] [ 0.77397493 -0.09550888] [ 1.01648683  0.08364776] [ 1.07245111  0.18602298] [ 1.16572492  0.39077342] [ 1.10976064  0.39077342] [ 1.16572492  0.67230528] [ 1.33361778  0.59552386] [ 1.25899873  0.59552386] [ 1.20303444  0.62111767] [ 1.22168921  0.62111767] [ 1.09110587  0.59552386] [ 1.16572492  0.54433625] [ 1.22168921  0.41636723] [ 0.69935588  0.59552386] [ 1.1284154   0.80027431] [ 1.22168921  0.64671148] [ 1.16572492  0.62111767] [ 1.03514159  0.67230528] [ 0.77397493  0.7490867 ] [ 0.81128445  0.51874245] [ 1.07245111  0.21161679] [ 1.1284154  0.2628044] [ 1.16572492  0.23721059] [ 0.86724874  0.21161679] [ 0.86724874  0.2628044 ] [ 0.97917731  0.44196103] [ 1.25899873  0.2628044 ] [ 1.14707016  0.41636723] [ 1.10976064  0.51874245] [ 0.  0.] [ 0.  0.] [ 0.  0.] [ 0.  0.] [ 0.  0.] [ 0.  0.] [ 0.  0.] [ 0.  0.] [ 0.  0.] [ 0.  0.] [ 0.  0.] [ 0.  0.] [ 0.  0.] [ 0.  0.] [ 0.  0.] [ 0.  0.] [ 0.  0.] [ 0.  0.] [ 0.  0.] [ 0.  0.] [ 0.  0.] [ 0.  0.] [ 0.  0.] [ 0.  0.] [ 0.  0.] [ 0.  0.] [ 0.  0.] [ 0.  0.] [ 0.  0.] [ 0.  0.] [ 0.  0.] [ 0.  0.] [ 0.  0.] [ 0.  0.] [ 0.  0.] [ 0.  0.] [ 0.  0.] [ 0.  0.] [ 0.  0.] [ 0.  0.] [ 0.  0.] [ 0.  0.] [ 0.  0.] [ 0.  0.] [ 0.  0.] [ 0.  0.] [ 0.  0.] [ 0.  0.] [ 0.  0.] [ 0.  0.] [ 0.  0.] [ 0.  0.] [ 0.  0.] [ 0.  0.] [ 0.  0.] [ 0.  0.] [ 0.  0.] [ 0.  0.] [ 0.  0.] [ 0.  0.] [ 0.  0.] [ 0.  0.] [ 0.  0.] [ 0.  0.] [ 0.  0.] [ 0.  0.] [ 0.  0.] [ 0.  0.] [ 0.  0.] [ 0.  0.] [ 0.  0.] [ 0.  0.] [ 0.  0.] [ 0.  0.] [ 0.  0.] [ 0.  0.] [ 0.  0.] [ 0.  0.] [ 0.  0.] [ 0.  0.] [ 0.  0.] [ 0.  0.] [ 0.  0.] [ 0.  0.] [ 0.  0.]
[ 0.60608207  0.18602298] [ 1.72536777 -0.42822834] [ 2.56483204 -1.37519914] [ 3.36698678  0.25000749] [ 3.21774869  1.08180616] [ 2.02384395  0.56993006] [ 0.82993921  1.59368227] [-0.2333822   2.28471501] [-0.19607267  3.12931058] [-0.2333822   3.84593713] [-0.10279886  3.35965483] [ 0.2516416   1.72165129] [-0.12145363  0.08364776] [-0.88629885 -0.1978841 ] [-1.0541917  -0.35144693] [-0.92360837 -0.53060356] [-1.2034298  -0.32585312] [-1.25939408 -0.42822834] [-1.42728693 -0.27466551] [-1.6884536  -0.47941595] [-1.83769169 -0.47941595] [-2.13616787 -0.65857259] [-2.56522739 -0.73535401] [-2.78908453 -0.78654162] [-2.67715596 -1.04247967] [-2.56522739 -1.11926108] [-2.80773929 -1.14485489] [-2.45329882 -1.47757436] [-2.36002501 -1.47757436] [-1.63248931 -1.45198055] [-1.50190598 -1.60554338] [-0.97957266 -1.45198055] [-0.5691679  -1.45198055] [-0.4758941  -1.32401152] [ 0.04643923 -1.06807347] [ 0.38222494 -0.99129206] [ 0.36357017 -0.76094781] [ 0.79262969 -0.58179117] [ 0.90455826 -0.45382215] [ 1.01648683 -0.32585312] [ 1.1284154  -0.14669649] [ 1.29630825  0.00686635] [ 1.14707016 -0.04432127] [ 1.22168921  0.10924157] [ 1.24034397  0.23721059] [ 1.46420111  0.36517962] [ 1.42689158  0.33958581] [ 1.29630825  0.44196103] [ 1.31496301  0.41636723] [ 0.84859397  0.7490867 ] [ 1.25899873  0.49314864] [ 1.59478444  0.23721059] [ 1.50151063  0.18602298] [ 1.52016539  0.10924157] [ 1.10976064  0.10924157] [ 1.25899873 -0.04432127] [ 0.94186778  0.        ] [ 1.24034397  0.08364776] [ 0.90455826  0.16042918] [ 1.09110587  0.16042918] [ 1.16572492  0.39077342] [ 0.  0.] [ 0.  0.] [ 0.  0.] [ 0.  0.] [ 0.  0.] [ 0.  0.] [ 0.  0.] [ 0.  0.] [ 0.  0.] [ 0.  0.] [ 0.  0.] [ 0.  0.] [ 0.  0.] [ 0.  0.] [ 0.  0.] [ 0.  0.] [ 0.  0.] [ 0.  0.] [ 0.  0.] [ 0.  0.] [ 0.  0.] [ 0.  0.] [ 0.  0.] [ 0.  0.] [ 0.  0.] [ 0.  0.] [ 0.  0.] [ 0.  0.] [ 0.  0.] [ 0.  0.] [ 0.  0.] [ 0.  0.] [ 0.  0.] [ 0.  0.] [ 0.  0.] [ 0.  0.] [ 0.  0.] [ 0.  0.] [ 0.  0.] [ 0.  0.] [ 0.  0.] [ 0.  0.] [ 0.  0.] [ 0.  0.] [ 0.  0.] [ 0.  0.] [ 0.  0.] [ 0.  0.] [ 0.  0.] [ 0.  0.] [ 0.  0.] [ 0.  0.] [ 0.  0.] [ 0.  0.] [ 0.  0.] [ 0.  0.] [ 0.  0.] [ 0.  0.] [ 0.  0.] [ 0.  0.] [ 0.  0.] [ 0.  0.] [ 0.  0.] [ 0.  0.] [ 0.  0.] [ 0.  0.] [ 0.  0.] [ 0.  0.] [ 0.  0.] [ 0.  0.] [ 0.  0.] [ 0.  0.] [ 0.  0.] [ 0.  0.] [ 0.  0.] [ 0.  0.] [ 0.  0.] [ 0.  0.] [ 0.  0.] [ 0.  0.] [ 0.  0.] [ 0.  0.] [ 0.  0.] [ 0.  0.] [ 0.  0.] [ 0.  0.] [ 0.  0.] [ 0.  0.] [ 0.  0.] [ 0.  0.] [ 0.  0.]
[ 0.97917731  0.39077342] [ 1.91191538 -0.60738498] [ 3.08716536 -1.29841772] [ 2.60214156  0.32678891] [ 2.65810585  1.05621236] [ 1.46420111  1.41452563] [ 0.27029637  2.2335274 ] [-0.326656    3.05252916] [-0.06548934  4.07628137] [-0.66244171  4.63934509] [-0.79302504  3.41084244] [-0.68109647  1.7728389 ] [-0.69975123  0.13483537] [-1.14746551  0.00686635] [-1.14746551 -0.06991507] [-1.50190598 -0.01872746] [-1.40863217 -0.01872746] [-1.38997741 -0.09550888] [-1.81903693 -0.06991507] [-1.80038217 -0.14669649] [-2.15482264 -0.27466551] [-2.34137025 -0.47941595] [-2.77042977 -0.37704073] [-2.62119167 -0.60738498] [-2.9010131  -0.86332303] [-2.91966786 -0.76094781] [-2.60253691 -0.94010445] [-2.43464406 -1.04247967] [-2.0242393 -1.1960425] [-2.09885835 -1.06807347] [-1.42728693 -1.11926108] [-0.77437028 -1.09366728] [-0.51320362 -0.91451064] [ 0.         -0.91451064] [-0.04683458 -0.73535401] [ 0.32626065 -0.55619737] [ 0.51280827 -0.50500976] [ 0.47549874 -0.06991507] [ 0.77397493 -0.04432127] [ 0.84859397  0.05805396] [ 0.75532017  0.16042918] [ 0.99783207  0.2883982 ] [ 0.8859035   0.56993006] [ 1.10976064  0.54433625] [ 1.05379635  0.44196103] [ 0.99783207  0.46755484] [ 0.94186778  0.46755484] [ 1.29630825  0.54433625] [ 1.31496301  0.44196103] [ 1.33361778  0.54433625] [ 1.40823682  0.49314864] [ 1.59478444  0.46755484] [ 1.18437968  0.49314864] [ 1.38958206  0.72349289] [ 1.3709273   0.44196103] [ 1.57612968  0.13483537] [ 1.42689158  0.18602298] [ 1.63209396  0.00686635] [ 0.84859397  0.13483537] [ 0.97917731  0.00686635] [ 0.84859397  0.16042918] [ 0.96052254  0.18602298] [ 0.92321302  0.18602298] [ 1.07245111  0.2628044 ] [ 0.86724874  0.51874245] [ 0.  0.] [ 0.  0.] [ 0.  0.] [ 0.  0.] [ 0.  0.] [ 0.  0.] [ 0.  0.] [ 0.  0.] [ 0.  0.] [ 0.  0.] [ 0.  0.] [ 0.  0.] [ 0.  0.] [ 0.  0.] [ 0.  0.] [ 0.  0.] [ 0.  0.] [ 0.  0.] [ 0.  0.] [ 0.  0.] [ 0.  0.] [ 0.  0.] [ 0.  0.] [ 0.  0.] [ 0.  0.] [ 0.  0.] [ 0.  0.] [ 0.  0.] [ 0.  0.] [ 0.  0.] [ 0.  0.] [ 0.  0.] [ 0.  0.] [ 0.  0.] [ 0.  0.] [ 0.  0.] [ 0.  0.] [ 0.  0.] [ 0.  0.] [ 0.  0.] [ 0.  0.] [ 0.  0.] [ 0.  0.] [ 0.  0.] [ 0.  0.] [ 0.  0.] [ 0.  0.] [ 0.  0.] [ 0.  0.] [ 0.  0.] [ 0.  0.] [ 0.  0.] [ 0.  0.] [ 0.  0.] [ 0.  0.] [ 0.  0.] [ 0.  0.] [ 0.  0.] [ 0.  0.] [ 0.  0.] [ 0.  0.] [ 0.  0.] [ 0.  0.] [ 0.  0.] [ 0.  0.] [ 0.  0.] [ 0.  0.] [ 0.  0.] [ 0.  0.] [ 0.  0.] [ 0.  0.] [ 0.  0.] [ 0.  0.] [ 0.  0.] [ 0.  0.] [ 0.  0.] [ 0.  0.] [ 0.  0.] [ 0.  0.] [ 0.  0.] [ 0.  0.] [ 0.  0.] [ 0.  0.] [ 0.  0.] [ 0.  0.] [ 0.  0.] [ 0.  0.]
[ 1.09110587  0.33958581] [ 1.89326062 -0.40263454] [ 3.07783798 -1.29841772] [ 3.87066535  0.32678891] [ 3.25505822  1.2609628 ] [ 2.06115348  0.80027431] [ 0.86724874  1.61927607] [ 0.04643923  2.48946545] [ 0.19567732  3.30846722] [-0.04683458  4.35781323] [ 0.12105827  3.69237429] [ 0.23298684  2.05437076] [ 0.13971304  0.41636723] [-0.43858457 -0.2234779 ] [-0.38262029 -0.04432127] [-0.64378695 -0.14669649] [-0.49454886 -0.30025932] [-0.92360837 -0.35144693] [-1.2034298  -0.40263454] [-1.01688218 -0.37704073] [-1.25939408 -0.63297878] [-2.1734774  -0.50500976] [-1.96827502 -0.78654162] [-2.1734774  -1.01688586] [-2.24809644 -1.06807347] [-2.71446548 -1.29841772] [-1.81903693 -1.37519914] [-2.11751311 -1.40079294] [-1.87500121 -1.6823248 ] [-1.4459417  -1.45198055] [-0.9609179 -1.7079186] [-0.86764409 -1.55435577] [-0.27069172 -1.2216363 ] [ 0.2516416  -1.29841772] [ 0.55011779 -0.94010445] [ 0.47549874 -0.83772923] [ 0.82993921 -0.53060356] [ 0.66204636 -0.50500976] [ 0.96052254 -0.27466551] [ 0.8859035  -0.04432127] [ 0.96052254  0.08364776] [ 1.05379635  0.23721059] [ 0.99783207  0.2628044 ] [ 1.09110587  0.33958581] [ 1.01648683  0.31399201] [ 0.81128445  0.44196103] [ 0.92321302  0.36517962] [ 1.03514159  0.33958581] [ 0.84859397  0.36517962] [ 1.05379635  0.36517962] [ 1.05379635  0.2883982 ] [ 1.29630825  0.39077342] [ 1.29630825  0.31399201] [ 1.05379635  0.2883982 ] [ 1.31496301  0.18602298] [ 1.05379635  0.        ] [ 1.20303444  0.16042918] [ 1.01648683  0.16042918] [ 1.07245111 -0.01872746] [ 1.1284154   0.16042918] [ 0.94186778  0.08364776] [ 0.90455826  0.08364776] [ 0.81128445  0.18602298] [ 0.58742731  0.33958581] [ 0.53146303  0.2628044 ] [ 0.82993921 -0.14669649] [ 0.79262969 -0.12110268] [ 0.99783207 -0.30025932] [ 0.56877255 -0.27466551] [ 0.2516416  -0.30025932] [ 0.53146303 -0.27466551] [ 0.38222494 -0.04432127] [ 0.62473684  0.00686635] [ 0.55011779  0.08364776] [ 0.  0.] [ 0.  0.] [ 0.  0.] [ 0.  0.] [ 0.  0.] [ 0.  0.] [ 0.  0.] [ 0.  0.] [ 0.  0.] [ 0.  0.] [ 0.  0.] [ 0.  0.] [ 0.  0.] [ 0.  0.] [ 0.  0.] [ 0.  0.] [ 0.  0.] [ 0.  0.] [ 0.  0.] [ 0.  0.] [ 0.  0.] [ 0.  0.] [ 0.  0.] [ 0.  0.] [ 0.  0.] [ 0.  0.] [ 0.  0.] [ 0.  0.] [ 0.  0.] [ 0.  0.] [ 0.  0.] [ 0.  0.] [ 0.  0.] [ 0.  0.] [ 0.  0.] [ 0.  0.] [ 0.  0.] [ 0.  0.] [ 0.  0.] [ 0.  0.] [ 0.  0.] [ 0.  0.] [ 0.  0.] [ 0.  0.] [ 0.  0.] [ 0.  0.] [ 0.  0.] [ 0.  0.] [ 0.  0.] [ 0.  0.] [ 0.  0.] [ 0.  0.] [ 0.  0.] [ 0.  0.] [ 0.  0.] [ 0.  0.] [ 0.  0.] [ 0.  0.] [ 0.  0.] [ 0.  0.] [ 0.  0.] [ 0.  0.] [ 0.  0.] [ 0.  0.] [ 0.  0.] [ 0.  0.] [ 0.  0.] [ 0.  0.] [ 0.  0.] [ 0.  0.] [ 0.  0.] [ 0.  0.] [ 0.  0.] [ 0.  0.] [ 0.  0.] [ 0.  0.] [ 0.  0.] [ 0.  0.]
[ 0.81128445  0.00686635] [ 1.18437968 -0.17229029] [ 2.17308204 -1.24723011] [ 3.3576594 -1.1960425] [ 2.69541537  0.42916413] [ 1.50151063  0.08364776] [ 0.30760589  1.08180616] [-0.53185838  1.7472451 ] [-0.21472743  2.43827784] [-0.55051314  3.43643624] [-0.25203696  3.64118668] [-0.28934648  2.36149642] [-0.30800124  0.72349289] [-1.0541917  -0.17229029] [-1.16612027 -0.42822834] [-1.42728693 -0.32585312] [-1.61383455 -0.42822834] [-1.61383455 -0.47941595] [-2.0242393  -0.30025932] [-2.09885835 -0.45382215] [-2.30406073 -0.55619737] [-2.52791787 -0.55619737] [-2.77042977 -0.40263454] [-2.75177501 -0.73535401] [-3.19948928 -0.63297878] [-2.97563214 -1.01688586] [-3.34872737 -0.96569825] [-3.06890595 -1.24723011] [-3.12487024 -1.1960425 ] [-2.63984644 -1.34960533] [-2.43464406 -1.27282391] [-1.96827502 -1.32401152] [-1.63248931 -1.29841772] [-1.07284647 -1.2216363 ] [-0.718406   -0.83772923] [-0.02817982 -0.81213542] [ 0.23298684 -0.60738498] [ 0.47549874 -0.42822834] [ 0.81128445 -0.35144693] [ 0.6433916 -0.2234779] [ 0.82993921  0.00686635] [ 0.96052254  0.00686635] [ 0.8859035   0.21161679] [ 1.07245111  0.18602298] [ 0.82993921  0.08364776] [ 1.05379635  0.23721059] [ 0.96052254  0.33958581] [ 0.92321302  0.21161679] [ 0.96052254  0.33958581] [ 0.86724874  0.23721059] [ 0.84859397  0.21161679] [ 0.77397493  0.18602298] [ 0.69935588  0.2628044 ] [ 1.01648683  0.23721059] [ 0.8859035   0.21161679] [ 0.92321302  0.23721059] [ 1.01648683  0.23721059] [ 0.75532017  0.2628044 ] [ 0.99783207  0.21161679] [ 0.97917731  0.18602298] [ 0.92321302  0.13483537] [ 0.82993921  0.2628044 ] [ 0.90455826  0.21161679] [ 0.84859397  0.31399201] [ 0.92321302  0.2628044 ] [ 1.05379635  0.2628044 ] [ 0.55011779  0.56993006] [ 0.84859397  0.54433625] [ 1.03514159  0.13483537] [ 1.27765349  0.        ] [ 0.96052254  0.00686635] [ 0.8859035  -0.27466551] [ 0.66204636 -0.12110268] [ 0.60608207 -0.09550888] [ 0.43818922  0.        ] [ 0.92321302  0.        ] [ 0.75532017  0.36517962] [ 0.  0.] [ 0.  0.] [ 0.  0.] [ 0.  0.] [ 0.  0.] [ 0.  0.] [ 0.  0.] [ 0.  0.] [ 0.  0.] [ 0.  0.] [ 0.  0.] [ 0.  0.] [ 0.  0.] [ 0.  0.] [ 0.  0.] [ 0.  0.] [ 0.  0.] [ 0.  0.] [ 0.  0.] [ 0.  0.] [ 0.  0.] [ 0.  0.] [ 0.  0.] [ 0.  0.] [ 0.  0.] [ 0.  0.] [ 0.  0.] [ 0.  0.] [ 0.  0.] [ 0.  0.] [ 0.  0.] [ 0.  0.] [ 0.  0.] [ 0.  0.] [ 0.  0.] [ 0.  0.] [ 0.  0.] [ 0.  0.] [ 0.  0.] [ 0.  0.] [ 0.  0.] [ 0.  0.] [ 0.  0.] [ 0.  0.] [ 0.  0.] [ 0.  0.] [ 0.  0.] [ 0.  0.] [ 0.  0.] [ 0.  0.] [ 0.  0.] [ 0.  0.] [ 0.  0.] [ 0.  0.] [ 0.  0.] [ 0.  0.] [ 0.  0.] [ 0.  0.] [ 0.  0.] [ 0.  0.] [ 0.  0.] [ 0.  0.] [ 0.  0.] [ 0.  0.] [ 0.  0.] [ 0.  0.] [ 0.  0.] [ 0.  0.] [ 0.  0.] [ 0.  0.] [ 0.  0.] [ 0.  0.] [ 0.  0.] [ 0.  0.] [ 0.  0.]
[ 0.73666541  0.2628044 ] [ 1.05379635 -0.04432127] [ 1.74402253 -1.14485489] [ 2.86330822 -1.98945046] [ 2.78868918 -0.36424383] [ 2.04249871  0.69789909] [ 0.84859397  0.82586811] [-0.34531076  1.72165129] [-0.64378695  2.61743448] [-0.51320362  3.43643624] [-1.07284647  4.28103181] [-1.0541917   3.12931058] [-0.79302504  1.49130705] [-0.99822742 -0.14669649] [-1.37132265 -0.45382215] [-1.25939408 -0.55619737] [-1.48325122 -0.50500976] [-1.59517979 -0.58179117] [-1.9309655 -0.7097602] [-1.98692978 -0.68416639] [-2.08020359 -0.73535401] [-2.6585012  -0.78654162] [-2.69581072 -0.91451064] [-3.08756071 -0.96569825] [-3.16217976 -0.96569825] [-3.33007261 -1.14485489] [-3.27410833 -1.14485489] [-3.18083452 -1.34960533] [-2.97563214 -1.24723011] [-2.73312024 -1.40079294] [-2.58388215 -1.34960533] [-1.96827502 -1.45198055] [-1.40863217 -1.55435577] [-1.16612027 -1.42638675] [-0.64378695 -1.32401152] [-0.38262029 -1.40079294] [-0.30800124 -1.1960425 ] [-0.2333822  -1.14485489] [-0.0841441  -0.94010445] [ 0.12105827 -0.99129206] [-0.02817982 -0.68416639] [ 0.34491541 -0.37704073] [ 0.41953446 -0.47941595] [ 0.27029637 -0.37704073] [-0.02817982 -0.24907171] [ 0.36357017 -0.35144693] [-0.30800124 -0.1978841 ] [ 0.04643923 -0.12110268] [ 0.06509399  0.00686635] [ 0.23298684 -0.04432127] [ 0.13971304 -0.01872746] [ 0.06509399 -0.14669649] [-0.02817982  0.08364776] [ 0.08374875  0.08364776] [ 0.41953446 -0.35144693] [ 0.79262969 -0.47941595] [ 0.55011779 -0.53060356] [ 0.4008797  -0.78654162] [ 0.17702256 -0.42822834] [ 0.41953446 -0.42822834] [ 0.51280827 -0.40263454] [ 0.77397493 -0.47941595] [ 0.28895113 -0.06991507] [ 0.84859397  0.05805396] [ 0.  0.] [ 0.  0.] [ 0.  0.] [ 0.  0.] [ 0.  0.] [ 0.  0.] [ 0.  0.] [ 0.  0.] [ 0.  0.] [ 0.  0.] [ 0.  0.] [ 0.  0.] [ 0.  0.] [ 0.  0.] [ 0.  0.] [ 0.  0.] [ 0.  0.] [ 0.  0.] [ 0.  0.] [ 0.  0.] [ 0.  0.] [ 0.  0.] [ 0.  0.] [ 0.  0.] [ 0.  0.] [ 0.  0.] [ 0.  0.] [ 0.  0.] [ 0.  0.] [ 0.  0.] [ 0.  0.] [ 0.  0.] [ 0.  0.] [ 0.  0.] [ 0.  0.] [ 0.  0.] [ 0.  0.] [ 0.  0.] [ 0.  0.] [ 0.  0.] [ 0.  0.] [ 0.  0.] [ 0.  0.] [ 0.  0.] [ 0.  0.] [ 0.  0.] [ 0.  0.] [ 0.  0.] [ 0.  0.] [ 0.  0.] [ 0.  0.] [ 0.  0.] [ 0.  0.] [ 0.  0.] [ 0.  0.] [ 0.  0.] [ 0.  0.] [ 0.  0.] [ 0.  0.] [ 0.  0.] [ 0.  0.] [ 0.  0.] [ 0.  0.] [ 0.  0.] [ 0.  0.] [ 0.  0.] [ 0.  0.] [ 0.  0.] [ 0.  0.] [ 0.  0.] [ 0.  0.] [ 0.  0.] [ 0.  0.] [ 0.  0.] [ 0.  0.] [ 0.  0.] [ 0.  0.] [ 0.  0.] [ 0.  0.] [ 0.  0.] [ 0.  0.] [ 0.  0.] [ 0.  0.] [ 0.  0.] [ 0.  0.] [ 0.  0.] [ 0.  0.] [ 0.  0.]
[ 0.56877255  0.31399201] [ 0.82993921 -0.06991507] [ 1.40823682 -0.42822834] [ 2.59281418 -1.40079294] [ 3.18043917 -0.01872746] [ 2.62079632  0.72349289] [ 1.42689158  0.44196103] [ 0.23298684  1.28655661] [-0.28934648  2.31030881] [-0.0841441   2.92456014] [-0.73706076  3.92271854] [-0.40127505  3.25727961] [-0.66244171  1.61927607] [-0.326656   -0.01872746] [-1.33401313 -0.35144693] [-1.24073932 -0.24907171] [-1.46459646 -0.40263454] [-1.40863217 -0.35144693] [-1.7817274  -0.45382215] [-1.81903693 -0.50500976] [-2.19213216 -0.58179117] [-2.47195358 -0.60738498] [-2.22944168 -0.60738498] [-2.56522739 -0.65857259] [-2.67715596 -0.76094781] [-2.95697738 -0.99129206] [-3.18083452 -1.06807347] [-3.03159643 -1.37519914] [-3.03159643 -1.40079294] [-2.99428691 -1.45198055] [-2.6585012  -1.47757436] [-2.19213216 -1.60554338] [-1.74441788 -1.42638675] [-1.25939408 -1.42638675] [-0.86764409 -1.29841772] [-0.27069172 -1.01688586] [ 0.12105827 -0.81213542] [ 0.21433208 -0.76094781] [ 0.38222494 -0.60738498] [ 0.55011779 -0.37704073] [ 0.58742731 -0.32585312] [ 0.51280827 -0.04432127] [ 0.68070112 -0.09550888] [ 0.55011779  0.16042918] [ 0.62473684  0.36517962] [ 0.66204636  0.46755484] [ 0.53146303  0.44196103] [ 0.6433916   0.56993006] [ 0.56877255  0.54433625] [ 0.4008797   0.41636723] [ 0.51280827  0.44196103] [ 0.51280827  0.49314864] [ 0.56877255  0.36517962] [ 0.1583678   0.54433625] [ 0.86724874  0.41636723] [ 0.56877255  0.33958581] [ 0.47549874  0.39077342] [ 0.66204636  0.33958581] [ 0.68070112  0.36517962] [ 0.45684398  0.41636723] [ 0.94186778  0.2883982 ] [ 1.05379635  0.23721059] [ 0.21433208 -0.06991507] [-0.97957266 -0.65857259] [-2.1734774  -2.29657612] [-3.36738214 -3.93457966] [ 0.  0.] [ 0.  0.] [ 0.  0.] [ 0.  0.] [ 0.  0.] [ 0.  0.] [ 0.  0.] [ 0.  0.] [ 0.  0.] [ 0.  0.] [ 0.  0.] [ 0.  0.] [ 0.  0.] [ 0.  0.] [ 0.  0.] [ 0.  0.] [ 0.  0.] [ 0.  0.] [ 0.  0.] [ 0.  0.] [ 0.  0.] [ 0.  0.] [ 0.  0.] [ 0.  0.] [ 0.  0.] [ 0.  0.] [ 0.  0.] [ 0.  0.] [ 0.  0.] [ 0.  0.] [ 0.  0.] [ 0.  0.] [ 0.  0.] [ 0.  0.] [ 0.  0.] [ 0.  0.] [ 0.  0.] [ 0.  0.] [ 0.  0.] [ 0.  0.] [ 0.  0.] [ 0.  0.] [ 0.  0.] [ 0.  0.] [ 0.  0.] [ 0.  0.] [ 0.  0.] [ 0.  0.] [ 0.  0.] [ 0.  0.] [ 0.  0.] [ 0.  0.] [ 0.  0.] [ 0.  0.] [ 0.  0.] [ 0.  0.] [ 0.  0.] [ 0.  0.] [ 0.  0.] [ 0.  0.] [ 0.  0.] [ 0.  0.] [ 0.  0.] [ 0.  0.] [ 0.  0.] [ 0.  0.] [ 0.  0.] [ 0.  0.] [ 0.  0.] [ 0.  0.] [ 0.  0.] [ 0.  0.] [ 0.  0.] [ 0.  0.] [ 0.  0.] [ 0.  0.] [ 0.  0.] [ 0.  0.] [ 0.  0.] [ 0.  0.] [ 0.  0.] [ 0.  0.] [ 0.  0.] [ 0.  0.] [ 0.  0.] [ 0.  0.]
[ 0.21433208  0.36517962] [ 1.1284154 -0.7097602] [ 2.31299276 -2.09182568] [ 1.52016539 -0.46661905] [ 1.50151063  0.92824333] [ 0.30760589  0.82586811] [-0.88629885  1.7728389 ] [-0.90495361  2.66862209] [-0.69975123  3.33406102] [-1.11015599  4.46018845] [-0.92360837  3.53881146] [-1.0541917   1.90080793] [-1.33401313  0.2628044 ] [-1.63248931 -0.04432127] [-1.74441788 -0.14669649] [-1.63248931 -0.27466551] [-1.7817274  -0.14669649] [-1.72576312 -0.24907171] [-2.06154883 -0.35144693] [-1.85634645 -0.40263454] [-2.09885835 -0.53060356] [-2.24809644 -0.35144693] [-2.47195358 -0.7097602 ] [-2.39733454 -0.73535401] [-2.84504881 -0.86332303] [-2.80773929 -0.83772923] [-2.63984644 -1.01688586] [-2.49060834 -0.99129206] [-2.39733454 -1.1960425 ] [-2.2667512  -1.24723011] [-2.00558454 -1.17044869] [-1.74441788 -1.37519914] [-1.12881075 -1.42638675] [-1.46459646 -1.06807347] [-0.68109647 -0.94010445] [-0.04683458 -0.86332303] [-0.36396553 -0.60738498] [ 0.34491541 -0.47941595] [ 0.06509399 -0.30025932] [ 0.34491541 -0.32585312] [ 0.23298684 -0.12110268] [ 0.58742731 -0.04432127] [-0.00952506  0.05805396] [ 0.34491541  0.10924157] [ 0.47549874  0.16042918] [ 0.34491541  0.18602298] [ 0.41953446  0.2628044 ] [ 0.51280827  0.31399201] [ 0.51280827  0.2883982 ] [ 0.75532017  0.21161679] [ 0.69935588  0.41636723] [ 1.29630825  0.62111767] [ 1.05379635  0.82586811] [ 1.35227254  0.82586811] [ 1.44554634  0.72349289] [ 1.8559511  0.2628044] [ 1.53882015 -0.17229029] [ 0.43818922 -0.01872746] [ 1.62276658 -0.14669649] [ 0.86724874 -0.1978841 ] [ 0.49415351 -0.35144693] [-0.69975123 -1.11926108] [-1.89365597 -2.75726462] [-3.08756071 -4.39526815] [ 0.  0.] [ 0.  0.] [ 0.  0.] [ 0.  0.] [ 0.  0.] [ 0.  0.] [ 0.  0.] [ 0.  0.] [ 0.  0.] [ 0.  0.] [ 0.  0.] [ 0.  0.] [ 0.  0.] [ 0.  0.] [ 0.  0.] [ 0.  0.] [ 0.  0.] [ 0.  0.] [ 0.  0.] [ 0.  0.] [ 0.  0.] [ 0.  0.] [ 0.  0.] [ 0.  0.] [ 0.  0.] [ 0.  0.] [ 0.  0.] [ 0.  0.] [ 0.  0.] [ 0.  0.] [ 0.  0.] [ 0.  0.] [ 0.  0.] [ 0.  0.] [ 0.  0.] [ 0.  0.] [ 0.  0.] [ 0.  0.] [ 0.  0.] [ 0.  0.] [ 0.  0.] [ 0.  0.] [ 0.  0.] [ 0.  0.] [ 0.  0.] [ 0.  0.] [ 0.  0.] [ 0.  0.] [ 0.  0.] [ 0.  0.] [ 0.  0.] [ 0.  0.] [ 0.  0.] [ 0.  0.] [ 0.  0.] [ 0.  0.] [ 0.  0.] [ 0.  0.] [ 0.  0.] [ 0.  0.] [ 0.  0.] [ 0.  0.] [ 0.  0.] [ 0.  0.] [ 0.  0.] [ 0.  0.] [ 0.  0.] [ 0.  0.] [ 0.  0.] [ 0.  0.] [ 0.  0.] [ 0.  0.] [ 0.  0.] [ 0.  0.] [ 0.  0.] [ 0.  0.] [ 0.  0.] [ 0.  0.] [ 0.  0.] [ 0.  0.] [ 0.  0.] [ 0.  0.] [ 0.  0.] [ 0.  0.] [ 0.  0.] [ 0.  0.] [ 0.  0.] [ 0.  0.]
[ 0.32626065  2.31030881] [-0.2333822   3.10371677] [-0.12145363  3.89712474] [-0.40127505  3.58999907] [-0.45723933  1.95199554] [ 0.0091297   0.31399201] [-1.18477503 -0.42822834] [-1.03553694 -0.47941595] [-1.14746551 -0.50500976] [-1.16612027 -0.47941595] [-1.35266789 -0.60738498] [-1.57652503 -0.40263454] [-1.52056074 -0.58179117] [-1.7817274 -0.7097602] [-1.6884536  -0.68416639] [-1.94962026 -0.78654162] [-2.19213216 -0.94010445] [-1.91231074 -1.11926108] [-2.22944168 -1.2216363 ] [-2.11751311 -1.37519914] [-2.09885835 -1.50316816] [-1.48325122 -1.63113719] [-1.35266789 -1.7079186 ] [-1.2034298  -1.78470002] [-0.58782266 -1.47757436] [-0.41992981 -1.52876197] [-0.12145363 -1.27282391] [ 0.13971304 -1.01688586] [ 0.06509399 -1.01688586] [ 0.38222494 -0.7097602 ] [ 0.30760589 -0.55619737] [ 0.53146303 -0.45382215] [ 0.21433208 -0.27466551] [ 0.4008797  -0.06991507] [ 0.77397493 -0.06991507] [ 0.43818922 -0.09550888] [ 0.51280827 -0.01872746] [ 0.56877255 -0.01872746] [ 0.69935588  0.05805396] [ 0.73666541  0.08364776] [ 0.81128445 -0.01872746] [ 0.77397493 -0.04432127] [ 0.73666541  0.08364776] [ 0.68070112  0.        ] [ 0.90455826  0.00686635] [ 0.82993921  0.08364776] [ 0.8859035  -0.01872746] [ 0.47549874  0.16042918] [ 0.71801064  0.18602298] [ 0.86724874  0.10924157] [ 0.6433916   0.16042918] [ 0.66204636  0.13483537] [ 0.43818922  0.05805396] [ 0.60608207  0.13483537] [ 0.43818922  0.16042918] [ 0.28895113  0.        ] [ 0.30760589  0.05805396] [ 0.41953446  0.16042918] [ 0.53146303  0.05805396] [ 0.41953446  0.10924157] [ 0.4008797   0.44196103] [ 0.66204636  0.59552386] [ 0.79262969  0.7746805 ] [ 0.75532017  0.7490867 ] [ 0.86724874  0.46755484] [ 1.03514159  0.10924157] [ 0.8859035   0.05805396] [ 0.43818922 -0.06991507] [ 0.51280827  0.05805396] [ 0.47549874  0.05805396] [ 0.51280827  0.        ] [ 0.58742731  0.08364776] [ 0.58742731  0.08364776] [ 0.58742731  0.        ] [ 0.13971304  0.16042918] [ 0.51280827  0.18602298] [ 0.49415351  0.16042918] [ 0.55011779  0.62111767] [ 0.92321302  0.54433625] [ 1.93057014 -0.30025932] [ 2.69541537 -1.47757436] [ 3.01254631  0.        ] [ 2.54617728  1.08180616] [ 1.35227254  0.72349289] [ 0.1583678   1.72165129] [ 0.  0.] [ 0.  0.] [ 0.  0.] [ 0.  0.] [ 0.  0.] [ 0.  0.] [ 0.  0.] [ 0.  0.] [ 0.  0.] [ 0.  0.] [ 0.  0.] [ 0.  0.] [ 0.  0.] [ 0.  0.] [ 0.  0.] [ 0.  0.] [ 0.  0.] [ 0.  0.] [ 0.  0.] [ 0.  0.] [ 0.  0.] [ 0.  0.] [ 0.  0.] [ 0.  0.] [ 0.  0.] [ 0.  0.] [ 0.  0.] [ 0.  0.] [ 0.  0.] [ 0.  0.] [ 0.  0.] [ 0.  0.] [ 0.  0.] [ 0.  0.] [ 0.  0.] [ 0.  0.] [ 0.  0.] [ 0.  0.] [ 0.  0.] [ 0.  0.] [ 0.  0.] [ 0.  0.] [ 0.  0.] [ 0.  0.] [ 0.  0.] [ 0.  0.] [ 0.  0.] [ 0.  0.] [ 0.  0.] [ 0.  0.] [ 0.  0.] [ 0.  0.] [ 0.  0.] [ 0.  0.] [ 0.  0.] [ 0.  0.] [ 0.  0.] [ 0.  0.] [ 0.  0.] [ 0.  0.] [ 0.  0.] [ 0.  0.] [ 0.  0.] [ 0.  0.] [ 0.  0.] [ 0.  0.] [ 0.  0.]
[ 0.30760589  0.36517962] [ 0.45684398  0.13483537] [ 1.48285587 -0.94010445] [ 2.66743323 -1.37519914] [ 2.35962966  0.25000749] [ 2.43424871  0.49314864] [ 1.24034397  1.03061855] [ 0.04643923  1.7472451 ] [-0.21472743  2.46387164] [-0.36396553  3.30846722] [-0.4758941   3.84593713] [-0.12145363  2.7198097 ] [-0.30800124  1.08180616] [-1.14746551  0.08364776] [-1.40863217 -0.01872746] [-1.40863217 -0.17229029] [-1.61383455 -0.14669649] [-1.76307264 -0.30025932] [-2.06154883 -0.17229029] [-1.83769169 -0.30025932] [-2.04289407 -0.30025932] [-2.30406073 -0.45382215] [-2.49060834 -0.47941595] [-2.67715596 -0.63297878] [-2.88235834 -0.7097602 ] [-2.84504881 -0.83772923] [-3.05025119 -1.01688586] [-3.03159643 -1.1960425 ] [-2.80773929 -1.06807347] [-2.52791787 -1.27282391] [-2.28540597 -1.29841772] [-1.83769169 -1.29841772] [-1.46459646 -1.2216363 ] [-0.90495361 -1.2216363 ] [-0.60647743 -0.91451064] [-0.19607267 -0.94010445] [ 0.04643923 -0.60738498] [ 0.32626065 -0.27466551] [ 0.60608207 -0.12110268] [ 0.6433916  0.2883982] [ 0.81128445  0.44196103] [ 0.73666541  0.36517962] [ 0.90455826  0.        ] [ 0.6433916   0.18602298] [ 0.69935588  0.16042918] [ 0.8859035   0.18602298] [ 0.30760589  0.21161679] [ 0.43818922  0.13483537] [ 0.45684398  0.23721059] [ 0.43818922  0.36517962] [ 0.45684398  0.23721059] [ 0.47549874  0.33958581] [ 0.69935588  0.2883982 ] [ 0.66204636  0.56993006] [ 0.  0.] [ 0.  0.] [ 0.  0.] [ 0.  0.] [ 0.  0.] [ 0.  0.] [ 0.  0.] [ 0.  0.] [ 0.  0.] [ 0.  0.] [ 0.  0.] [ 0.  0.] [ 0.  0.] [ 0.  0.] [ 0.  0.] [ 0.  0.] [ 0.  0.] [ 0.  0.] [ 0.  0.] [ 0.  0.] [ 0.  0.] [ 0.  0.] [ 0.  0.] [ 0.  0.] [ 0.  0.] [ 0.  0.] [ 0.  0.] [ 0.  0.] [ 0.  0.] [ 0.  0.] [ 0.  0.] [ 0.  0.] [ 0.  0.] [ 0.  0.] [ 0.  0.] [ 0.  0.] [ 0.  0.] [ 0.  0.] [ 0.  0.] [ 0.  0.] [ 0.  0.] [ 0.  0.] [ 0.  0.] [ 0.  0.] [ 0.  0.] [ 0.  0.] [ 0.  0.] [ 0.  0.] [ 0.  0.] [ 0.  0.] [ 0.  0.] [ 0.  0.] [ 0.  0.] [ 0.  0.] [ 0.  0.] [ 0.  0.] [ 0.  0.] [ 0.  0.] [ 0.  0.] [ 0.  0.] [ 0.  0.] [ 0.  0.] [ 0.  0.] [ 0.  0.] [ 0.  0.] [ 0.  0.] [ 0.  0.] [ 0.  0.] [ 0.  0.] [ 0.  0.] [ 0.  0.] [ 0.  0.] [ 0.  0.] [ 0.  0.] [ 0.  0.] [ 0.  0.] [ 0.  0.] [ 0.  0.] [ 0.  0.] [ 0.  0.] [ 0.  0.] [ 0.  0.] [ 0.  0.] [ 0.  0.] [ 0.  0.] [ 0.  0.] [ 0.  0.] [ 0.  0.] [ 0.  0.] [ 0.  0.] [ 0.  0.] [ 0.  0.] [ 0.  0.] [ 0.  0.] [ 0.  0.] [ 0.  0.] [ 0.  0.] [ 0.  0.]
[ 1.83729634  2.82218492] [ 2.07980824  3.92271854] [ 1.48285587  4.48578226] [ 2.04249871  3.07812297] [ 1.3709273   1.44011944] [ 0.17702256 -0.01872746] [-0.4758941 -0.1978841] [-0.75571552 -0.17229029] [-0.9609179  -0.30025932] [-1.01688218 -0.27466551] [-1.24073932 -0.37704073] [-1.33401313 -0.30025932] [-1.35266789 -0.37704073] [-1.48325122 -0.30025932] [-1.52056074 -0.35144693] [-1.57652503 -0.32585312] [-1.81903693 -0.35144693] [-1.85634645 -0.35144693] [-1.85634645 -0.37704073] [-2.11751311 -0.42822834] [-2.22944168 -0.63297878] [-2.34137025 -0.73535401] [-2.28540597 -0.68416639] [-2.1734774  -0.86332303] [-2.09885835 -0.99129206] [-1.98692978 -0.99129206] [-1.48325122 -1.06807347] [-1.16612027 -0.96569825] [-0.8116798  -0.91451064] [-0.25203696 -0.83772923] [ 0.08374875 -0.65857259] [ 0.34491541 -0.53060356] [ 0.47549874 -0.53060356] [ 0.60608207 -0.30025932] [ 0.84859397 -0.09550888] [ 0.84859397 -0.14669649] [ 0.68070112 -0.04432127] [ 0.75532017  0.13483537] [ 0.84859397  0.08364776] [ 0.56877255  0.05805396] [ 0.56877255  0.10924157] [ 0.56877255  0.08364776] [ 0.77397493  0.13483537] [ 0.55011779  0.08364776] [ 0.47549874  0.05805396] [ 0.62473684  0.08364776] [ 0.56877255  0.18602298] [ 0.47549874  0.        ] [ 0.49415351  0.13483537] [ 0.53146303  0.05805396] [ 0.43818922  0.        ] [ 0.60608207  0.        ] [ 0.2516416   0.10924157] [ 0.38222494  0.00686635] [ 0.43818922  0.13483537] [ 0.34491541  0.05805396] [ 0.28895113 -0.01872746] [ 0.38222494  0.08364776] [ 0.2516416   0.08364776] [ 0.19567732  0.00686635] [ 0.21433208  0.08364776] [ 0.32626065  0.10924157] [ 0.1583678   0.10924157] [ 0.21433208  0.05805396] [ 0.27029637  0.21161679] [ 0.62473684  0.33958581] [ 0.75532017  0.69789909] [ 0.62473684  0.46755484] [ 0.58742731  0.33958581] [ 0.53146303  0.16042918] [ 0.45684398  0.        ] [ 0.13971304 -0.01872746] [ 0.1583678  0.       ] [ 0.10240351 -0.14669649] [ 0.10240351 -0.14669649] [-0.04683458  0.00686635] [ 0.17702256  0.08364776] [ 0.0091297  -0.01872746] [ 0.12105827  0.05805396] [ 0.0091297  0.       ] [ 0.12105827  0.00686635] [ 0.06509399  0.05805396] [ 0.08374875  0.05805396] [ 0.12105827  0.00686635] [ 0.          0.10924157] [ 0.13971304  0.00686635] [-0.04683458 -0.04432127] [ 0.21433208  0.46755484] [ 0.  0.] [ 0.  0.] [ 0.  0.] [ 0.  0.] [ 0.  0.] [ 0.  0.] [ 0.  0.] [ 0.  0.] [ 0.  0.] [ 0.  0.] [ 0.  0.] [ 0.  0.] [ 0.  0.] [ 0.  0.] [ 0.  0.] [ 0.  0.] [ 0.  0.] [ 0.  0.] [ 0.  0.] [ 0.  0.] [ 0.  0.] [ 0.  0.] [ 0.  0.] [ 0.  0.] [ 0.  0.] [ 0.  0.] [ 0.  0.] [ 0.  0.] [ 0.  0.] [ 0.  0.] [ 0.  0.] [ 0.  0.] [ 0.  0.] [ 0.  0.] [ 0.  0.] [ 0.  0.] [ 0.  0.] [ 0.  0.] [ 0.  0.] [ 0.  0.] [ 0.  0.] [ 0.  0.] [ 0.  0.] [ 0.  0.] [ 0.  0.] [ 0.  0.] [ 0.  0.] [ 0.  0.] [ 0.  0.] [ 0.  0.] [ 0.  0.] [ 0.  0.] [ 0.  0.] [ 0.  0.] [ 0.  0.] [ 0.  0.] [ 0.  0.] [ 0.  0.] [ 0.  0.] [ 0.  0.] [ 0.  0.] [ 0.  0.] [ 0.  0.] [ 0.  0.]
[ 0.23298684  0.69789909] [ 0.97917731  0.21161679] [ 2.04249871 -1.27282391] [ 3.18043917 -2.50132656] [ 1.98653443 -0.87611993] [ 1.91191538  0.7490867 ] [ 0.71801064  1.56808846] [-0.38262029  2.43827784] [ 0.0091297   3.53881146] [-0.04683458  4.58815748] [-0.21472743  4.94647075] [-0.36396553  3.30846722] [-0.66244171  1.67046368] [-1.18477503  0.62111767] [-1.18477503  0.62111767] [-1.09150123  0.31399201] [-1.37132265 -0.14669649] [-1.50190598 -0.17229029] [-1.61383455 -0.09550888] [-1.6884536  -0.32585312] [-1.74441788 -0.14669649] [-1.81903693 -0.27466551] [-1.80038217 -0.30025932] [-1.83769169 -0.27466551] [-2.19213216 -0.35144693] [-2.11751311 -0.45382215] [-2.13616787 -0.45382215] [-2.39733454 -0.58179117] [-2.43464406 -0.73535401] [-2.36002501 -0.63297878] [-2.34137025 -0.91451064] [-2.21078692 -1.04247967] [-2.15482264 -1.17044869] [-1.6884536  -1.17044869] [-1.16612027 -1.2216363 ] [-0.86764409 -1.2216363 ] [-0.58782266 -1.04247967] [-0.17741791 -1.04247967] [ 0.21433208 -0.65857259] [ 0.49415351 -0.63297878] [ 0.34491541 -0.42822834] [ 0.60608207 -0.2234779 ] [ 0.56877255 -0.1978841 ] [ 0.60608207  0.        ] [ 0.56877255  0.13483537] [ 0.45684398  0.10924157] [ 0.43818922  0.10924157] [ 0.1583678   0.18602298] [ 0.34491541  0.2883982 ] [ 0.32626065  0.23721059] [ 0.36357017  0.21161679] [ 0.06509399  0.13483537] [ 0.23298684  0.2883982 ] [ 0.19567732  0.36517962] [ 0.30760589  0.18602298] [-0.02817982  0.23721059] [ 0.0091297   0.33958581] [ 0.06509399  0.16042918] [ 0.1583678  0.2628044] [-0.04683458  0.23721059] [ 0.12105827  0.21161679] [-0.04683458  0.33958581] [-0.12145363  0.33958581] [-0.17741791  0.16042918] [-0.14010839  0.33958581] [ 0.0091297  0.2628044] [ 0.0091297   0.18602298] [-0.19607267  0.2628044 ] [-0.14010839  0.39077342] [ 0.36357017  0.56993006] [ 0.27029637  0.67230528] [ 0.38222494  0.67230528] [ 0.08374875  0.41636723] [-0.04683458  0.23721059] [ 0.13971304  0.23721059] [-0.19607267  0.00686635] [-0.27069172  0.08364776] [-0.326656    0.05805396] [-0.34531076 -0.14669649] [-0.40127505  0.16042918] [-0.38262029  0.10924157] [-0.55051314  0.        ] [-0.21472743  0.05805396] [-0.66244171  0.08364776] [-0.43858457  0.00686635] [-0.45723933  0.05805396] [-0.4758941   0.05805396] [-0.40127505 -0.01872746] [-0.5691679   0.08364776] [-0.326656   -0.04432127] [-0.64378695  0.08364776] [ 0.  0.] [ 0.  0.] [ 0.  0.] [ 0.  0.] [ 0.  0.] [ 0.  0.] [ 0.  0.] [ 0.  0.] [ 0.  0.] [ 0.  0.] [ 0.  0.] [ 0.  0.] [ 0.  0.] [ 0.  0.] [ 0.  0.] [ 0.  0.] [ 0.  0.] [ 0.  0.] [ 0.  0.] [ 0.  0.] [ 0.  0.] [ 0.  0.] [ 0.  0.] [ 0.  0.] [ 0.  0.] [ 0.  0.] [ 0.  0.] [ 0.  0.] [ 0.  0.] [ 0.  0.] [ 0.  0.] [ 0.  0.] [ 0.  0.] [ 0.  0.] [ 0.  0.] [ 0.  0.] [ 0.  0.] [ 0.  0.] [ 0.  0.] [ 0.  0.] [ 0.  0.] [ 0.  0.] [ 0.  0.] [ 0.  0.] [ 0.  0.] [ 0.  0.] [ 0.  0.] [ 0.  0.] [ 0.  0.] [ 0.  0.] [ 0.  0.] [ 0.  0.] [ 0.  0.] [ 0.  0.] [ 0.  0.] [ 0.  0.] [ 0.  0.] [ 0.  0.] [ 0.  0.] [ 0.  0.] [ 0.  0.]
[ 0.99783207  0.54433625] [ 1.59478444  0.21161679] [ 2.45290347 -0.55619737] [ 3.63748083 -1.60554338] [ 4.0385582  -0.01872746] [ 3.5535344   1.60647917] [ 2.35962966  1.03061855] [ 1.16572492  2.15674598] [ 1.68805824  2.79659111] [ 1.87460586  3.58999907] [ 1.27765349  4.58815748] [ 1.29630825  3.87153093] [ 1.25899873  2.2335274 ] [ 0.2516416   0.59552386] [-0.14010839 -0.01872746] [-0.49454886 -0.1978841 ] [-0.69975123 -0.32585312] [-0.92360837 -0.35144693] [-1.0541917  -0.42822834] [-1.0541917  -0.50500976] [-1.24073932 -0.47941595] [-1.27804884 -0.45382215] [-1.18477503 -0.60738498] [-1.31535837 -0.55619737] [-1.48325122 -0.65857259] [-1.65114407 -0.7097602 ] [-1.5392155  -0.76094781] [-1.61383455 -0.83772923] [-1.76307264 -0.91451064] [-1.7817274  -0.88891684] [-1.76307264 -0.99129206] [-1.72576312 -1.06807347] [-1.85634645 -1.2216363 ] [-1.59517979 -1.17044869] [-1.38997741 -1.17044869] [-1.0541917  -1.42638675] [-0.92360837 -1.2216363 ] [-0.60647743 -1.50316816] [-0.25203696 -1.24723011] [-0.06548934 -1.14485489] [ 0.19567732 -0.88891684] [ 0.43818922 -0.76094781] [ 0.6433916  -0.63297878] [ 0.66204636 -0.50500976] [ 0.68070112 -0.32585312] [ 0.66204636 -0.2234779 ] [ 0.79262969 -0.14669649] [ 0.79262969  0.00686635] [ 0.73666541  0.00686635] [ 0.77397493 -0.09550888] [ 0.62473684 -0.09550888] [ 0.58742731 -0.01872746] [ 0.45684398 -0.1978841 ] [ 0.73666541 -0.17229029] [ 0.6433916  -0.17229029] [ 0.51280827  0.05805396] [ 0.77397493  0.05805396] [ 0.79262969 -0.12110268] [ 0.82993921  0.05805396] [ 0.97917731  0.05805396] [ 0.56877255  0.16042918] [ 1.09110587 -0.06991507] [ 0.82993921  0.10924157] [ 0.82993921 -0.12110268] [ 1.03514159 -0.09550888] [ 0.82993921 -0.09550888] [ 0.96052254 -0.2234779 ] [ 0.86724874 -0.12110268] [ 0.8859035  -0.06991507] [ 0.71801064 -0.04432127] [ 0.86724874 -0.09550888] [ 0.77397493  0.        ] [ 0.96052254  0.16042918] [ 1.05379635  0.41636723] [ 1.07245111  0.44196103] [ 0.75532017  0.2883982 ] [ 1.05379635 -0.04432127] [ 0.81128445 -0.01872746] [ 0.79262969 -0.1978841 ] [ 0.58742731 -0.14669649] [ 0.56877255 -0.30025932] [ 0.66204636 -0.1978841 ] [ 0.45684398 -0.32585312] [ 0.47549874 -0.06991507] [ 0.49415351 -0.14669649] [ 0.47549874 -0.17229029] [ 0.45684398 -0.12110268] [ 0.45684398 -0.1978841 ] [ 0.41953446 -0.17229029] [ 0.66204636 -0.12110268] [ 0.45684398 -0.06991507] [ 0.6433916 -0.2234779] [ 0.47549874 -0.06991507] [ 0.68070112 -0.17229029] [ 0.55011779  0.10924157] [ 0.  0.] [ 0.  0.] [ 0.  0.] [ 0.  0.] [ 0.  0.] [ 0.  0.] [ 0.  0.] [ 0.  0.] [ 0.  0.] [ 0.  0.] [ 0.  0.] [ 0.  0.] [ 0.  0.] [ 0.  0.] [ 0.  0.] [ 0.  0.] [ 0.  0.] [ 0.  0.] [ 0.  0.] [ 0.  0.] [ 0.  0.] [ 0.  0.] [ 0.  0.] [ 0.  0.] [ 0.  0.] [ 0.  0.] [ 0.  0.] [ 0.  0.] [ 0.  0.] [ 0.  0.] [ 0.  0.] [ 0.  0.] [ 0.  0.] [ 0.  0.] [ 0.  0.] [ 0.  0.] [ 0.  0.] [ 0.  0.] [ 0.  0.] [ 0.  0.] [ 0.  0.] [ 0.  0.] [ 0.  0.] [ 0.  0.] [ 0.  0.] [ 0.  0.] [ 0.  0.] [ 0.  0.] [ 0.  0.] [ 0.  0.] [ 0.  0.] [ 0.  0.] [ 0.  0.] [ 0.  0.] [ 0.  0.] [ 0.  0.] [ 0.  0.]
[ 2.22904633  3.05252916] [ 2.22904633  3.94831235] [ 1.68805824  4.43459464] [ 1.83729634  2.79659111] [ 1.38958206  1.15858758] [ 0.19567732  0.2628044 ] [-0.30800124 -0.09550888] [-0.53185838 -0.06991507] [-0.62513219 -0.01872746] [-0.92360837 -0.17229029] [-0.83033457 -0.2234779 ] [-0.97957266 -0.1978841 ] [-0.99822742 -0.2234779 ] [-1.0541917 -0.2234779] [-1.14746551 -0.14669649] [-1.2034298 -0.2234779] [-1.18477503 -0.32585312] [-1.37132265 -0.27466551] [-1.27804884 -0.37704073] [-1.37132265 -0.35144693] [-1.38997741 -0.47941595] [-1.48325122 -0.50500976] [-1.40863217 -0.60738498] [-1.38997741 -0.65857259] [-1.38997741 -0.81213542] [-1.18477503 -0.73535401] [-1.11015599 -0.86332303] [-0.86764409 -0.88891684] [-0.64378695 -0.83772923] [-0.326656   -0.81213542] [-0.12145363 -0.83772923] [ 0.21433208 -0.68416639] [ 0.36357017 -0.55619737] [ 0.62473684 -0.42822834] [ 0.69935588 -0.24907171] [ 0.90455826 -0.2234779 ] [ 0.99783207 -0.06991507] [ 0.8859035  0.       ] [ 0.92321302  0.10924157] [ 0.84859397  0.05805396] [ 0.84859397  0.18602298] [ 0.69935588  0.16042918] [ 0.73666541  0.13483537] [ 0.69935588  0.18602298] [ 0.71801064  0.16042918] [ 0.58742731  0.10924157] [ 0.62473684  0.13483537] [ 0.58742731  0.16042918] [ 0.56877255  0.05805396] [ 0.49415351  0.21161679] [ 0.60608207  0.10924157] [ 0.49415351  0.16042918] [ 0.47549874  0.10924157] [ 0.36357017  0.16042918] [ 0.4008797   0.05805396] [ 0.41953446  0.2883982 ] [ 0.34491541  0.        ] [ 0.28895113  0.10924157] [ 0.38222494  0.05805396] [ 0.32626065  0.16042918] [ 0.27029637  0.10924157] [ 0.2516416   0.13483537] [ 0.12105827  0.16042918] [ 0.36357017  0.16042918] [ 0.17702256  0.16042918] [ 0.19567732  0.21161679] [ 0.10240351  0.16042918] [ 0.27029637  0.21161679] [ 0.1583678   0.21161679] [ 0.21433208  0.16042918] [ 0.19567732  0.18602298] [ 0.1583678   0.23721059] [ 0.21433208  0.13483537] [ 0.23298684  0.2883982 ] [ 0.4008797   0.46755484] [ 0.68070112  0.64671148] [ 0.66204636  0.62111767] [ 0.56877255  0.49314864] [ 0.53146303  0.2883982 ] [ 0.30760589  0.13483537] [ 0.2516416   0.16042918] [ 0.2516416   0.05805396] [ 0.08374875  0.        ] [ 0.13971304  0.        ] [ 0.08374875  0.16042918] [-0.02817982  0.16042918] [ 0.08374875  0.18602298] [-0.04683458  0.00686635] [ 0.0091297   0.18602298] [ 0.          0.10924157] [ 0.          0.10924157] [-0.02817982  0.16042918] [ 0.0091297   0.08364776] [ 0.0091297  0.       ] [-0.10279886  0.16042918] [ 0.0091297   0.31399201] [ 0.19567732  0.56993006] [ 0.30760589  0.13483537] [ 0.  0.] [ 0.  0.] [ 0.  0.] [ 0.  0.] [ 0.  0.] [ 0.  0.] [ 0.  0.] [ 0.  0.] [ 0.  0.] [ 0.  0.] [ 0.  0.] [ 0.  0.] [ 0.  0.] [ 0.  0.] [ 0.  0.] [ 0.  0.] [ 0.  0.] [ 0.  0.] [ 0.  0.] [ 0.  0.] [ 0.  0.] [ 0.  0.] [ 0.  0.] [ 0.  0.] [ 0.  0.] [ 0.  0.] [ 0.  0.] [ 0.  0.] [ 0.  0.] [ 0.  0.] [ 0.  0.] [ 0.  0.] [ 0.  0.] [ 0.  0.] [ 0.  0.] [ 0.  0.] [ 0.  0.] [ 0.  0.] [ 0.  0.] [ 0.  0.] [ 0.  0.] [ 0.  0.] [ 0.  0.] [ 0.  0.] [ 0.  0.] [ 0.  0.] [ 0.  0.] [ 0.  0.] [ 0.  0.] [ 0.  0.] [ 0.  0.] [ 0.  0.] [ 0.  0.] [ 0.  0.]
[ 2.93792727  2.07996457] [ 3.0685106   2.79659111] [ 3.19909393  3.61559288] [ 3.44160583  2.97574775] [ 2.62079632  1.33774422] [ 1.42689158  0.44196103] [ 0.62473684  0.00686635] [ 0.08374875 -0.12110268] [-0.04683458 -0.12110268] [-0.2333822  -0.17229029] [-0.25203696 -0.24907171] [-0.41992981 -0.1978841 ] [-0.51320362 -0.24907171] [-0.62513219 -0.30025932] [-0.62513219 -0.1978841 ] [-0.718406   -0.37704073] [-0.718406   -0.27466551] [-0.84898933 -0.24907171] [-0.77437028 -0.40263454] [-0.9609179  -0.35144693] [-0.9609179  -0.40263454] [-1.12881075 -0.53060356] [-1.12881075 -0.65857259] [-1.01688218 -0.50500976] [-1.11015599 -0.58179117] [-0.9609179  -0.63297878] [-0.84898933 -0.55619737] [-0.64378695 -0.65857259] [-0.36396553 -0.60738498] [-0.06548934 -0.37704073] [ 0.19567732 -0.32585312] [ 0.58742731 -0.32585312] [ 0.71801064 -0.42822834] [ 0.86724874 -0.42822834] [ 1.07245111 -0.32585312] [ 1.14707016 -0.14669649] [ 1.14707016 -0.04432127] [ 1.24034397 -0.01872746] [ 1.24034397  0.05805396] [ 1.18437968  0.08364776] [ 1.16572492  0.10924157] [ 1.05379635  0.23721059] [ 1.07245111  0.16042918] [ 1.03514159  0.16042918] [ 0.97917731  0.23721059] [ 0.94186778  0.23721059] [ 0.99783207  0.2883982 ] [ 0.94186778  0.31399201] [ 0.99783207  0.36517962] [ 1.05379635  0.44196103] [ 1.10976064  0.39077342] [ 1.09110587  0.44196103] [ 1.16572492  0.54433625] [ 1.29630825  0.7490867 ] [ 0.94186778  0.64671148] [ 1.01648683  0.62111767] [ 1.01648683  0.49314864] [ 0.99783207  0.36517962] [ 0.75532017  0.23721059] [ 0.58742731  0.2628044 ] [ 0.36357017  0.16042918] [ 0.43818922  0.18602298] [ 0.36357017  0.23721059] [ 0.30760589  0.10924157] [ 0.27029637  0.23721059] [ 0.23298684  0.18602298] [ 0.27029637  0.18602298] [ 0.17702256  0.08364776] [ 0.17702256  0.21161679] [ 0.17702256  0.18602298] [ 0.21433208  0.18602298] [ 0.13971304  0.2628044 ] [ 0.17702256  0.21161679] [ 0.13971304  0.18602298] [ 0.1583678   0.33958581] [ 0.08374875  0.21161679] [ 0.08374875  0.23721059] [ 0.13971304  0.2628044 ] [ 0.17702256  0.2628044 ] [ 0.08374875  0.2628044 ] [ 0.08374875  0.33958581] [ 0.17702256  0.2628044 ] [ 0.17702256  0.2628044 ] [ 0.17702256  0.2628044 ] [ 0.27029637  0.39077342] [ 0.36357017  0.49314864] [ 0.41953446  0.54433625] [ 0.38222494  0.41636723] [ 0.41953446  0.56993006] [ 0.60608207  1.13299377] [ 1.01648683  0.64671148] [ 0.  0.] [ 0.  0.] [ 0.  0.] [ 0.  0.] [ 0.  0.] [ 0.  0.] [ 0.  0.] [ 0.  0.] [ 0.  0.] [ 0.  0.] [ 0.  0.] [ 0.  0.] [ 0.  0.] [ 0.  0.] [ 0.  0.] [ 0.  0.] [ 0.  0.] [ 0.  0.] [ 0.  0.] [ 0.  0.] [ 0.  0.] [ 0.  0.] [ 0.  0.] [ 0.  0.] [ 0.  0.] [ 0.  0.] [ 0.  0.] [ 0.  0.] [ 0.  0.] [ 0.  0.] [ 0.  0.] [ 0.  0.] [ 0.  0.] [ 0.  0.] [ 0.  0.] [ 0.  0.] [ 0.  0.] [ 0.  0.] [ 0.  0.] [ 0.  0.] [ 0.  0.] [ 0.  0.] [ 0.  0.] [ 0.  0.] [ 0.  0.] [ 0.  0.] [ 0.  0.] [ 0.  0.] [ 0.  0.] [ 0.  0.] [ 0.  0.] [ 0.  0.] [ 0.  0.] [ 0.  0.] [ 0.  0.] [ 0.  0.] [ 0.  0.] [ 0.  0.] [ 0.  0.] [ 0.  0.] [ 0.  0.]
[ 1.59478444 -0.27466551] [ 2.54617728 -1.91266904] [ 2.91927251 -1.37519914] [ 2.3409749   0.25000749] [ 1.14707016  0.2883982 ] [ 0.0091297  1.2609628] [ 0.94186778  1.82402651] [ 1.25899873  2.59184067] [ 0.82993921  3.61559288] [ 1.05379635  3.51321766] [ 0.86724874  1.87521412] [-0.326656    0.23721059] [-0.83033457  0.        ] [-0.92360837  0.        ] [-1.0541917 -0.1978841] [-1.18477503 -0.14669649] [-1.37132265 -0.12110268] [-1.37132265 -0.24907171] [-1.48325122 -0.24907171] [-1.5392155  -0.24907171] [-1.63248931 -0.27466551] [-1.65114407 -0.40263454] [-1.72576312 -0.32585312] [-1.74441788 -0.45382215] [-1.85634645 -0.45382215] [-1.74441788 -0.40263454] [-1.46459646 -0.40263454] [-1.72576312 -0.55619737] [-1.74441788 -0.45382215] [-1.61383455 -0.60738498] [-1.50190598 -0.55619737] [-1.57652503 -0.76094781] [-1.5392155  -0.86332303] [-1.4459417  -0.78654162] [-1.12881075 -0.76094781] [-0.83033457 -0.86332303] [-0.40127505 -1.01688586] [-0.06548934 -1.14485489] [ 0.1583678  -1.29841772] [ 0.06509399 -1.29841772] [ 0.13971304 -1.04247967] [ 0.28895113 -1.01688586] [ 0.49415351 -0.81213542] [ 0.62473684 -0.60738498] [ 0.66204636 -0.60738498] [ 0.71801064 -0.30025932] [ 0.71801064 -0.24907171] [ 0.69935588 -0.17229029] [ 0.58742731 -0.17229029] [ 0.53146303  0.00686635] [ 0.45684398 -0.01872746] [ 0.41953446 -0.01872746] [ 0.2516416   0.00686635] [ 0.21433208 -0.01872746] [ 0.1583678  0.       ] [ 0.21433208  0.10924157] [ 0.10240351  0.00686635] [ 0.06509399  0.08364776] [ 0.04643923  0.10924157] [ 0.08374875  0.        ] [ 0.          0.16042918] [-0.00952506  0.08364776] [-0.00952506  0.10924157] [ 0.          0.08364776] [-0.04683458  0.08364776] [-0.04683458  0.10924157] [ 0.12105827  0.41636723] [ 0.58742731 -0.14669649] [ 1.63209396 -1.7079186 ] [ 2.80734394 -2.1942009 ] [ 1.98653443 -0.56899427] [ 2.3409749   1.05621236] [ 1.14707016  1.38893183] [ 0.86724874  2.07996457] [ 0.  0.] [ 0.  0.] [ 0.  0.] [ 0.  0.] [ 0.  0.] [ 0.  0.] [ 0.  0.] [ 0.  0.] [ 0.  0.] [ 0.  0.] [ 0.  0.] [ 0.  0.] [ 0.  0.] [ 0.  0.] [ 0.  0.] [ 0.  0.] [ 0.  0.] [ 0.  0.] [ 0.  0.] [ 0.  0.] [ 0.  0.] [ 0.  0.] [ 0.  0.] [ 0.  0.] [ 0.  0.] [ 0.  0.] [ 0.  0.] [ 0.  0.] [ 0.  0.] [ 0.  0.] [ 0.  0.] [ 0.  0.] [ 0.  0.] [ 0.  0.] [ 0.  0.] [ 0.  0.] [ 0.  0.] [ 0.  0.] [ 0.  0.] [ 0.  0.] [ 0.  0.] [ 0.  0.] [ 0.  0.] [ 0.  0.] [ 0.  0.] [ 0.  0.] [ 0.  0.] [ 0.  0.] [ 0.  0.] [ 0.  0.] [ 0.  0.] [ 0.  0.] [ 0.  0.] [ 0.  0.] [ 0.  0.] [ 0.  0.] [ 0.  0.] [ 0.  0.] [ 0.  0.] [ 0.  0.] [ 0.  0.] [ 0.  0.] [ 0.  0.] [ 0.  0.] [ 0.  0.] [ 0.  0.] [ 0.  0.] [ 0.  0.] [ 0.  0.] [ 0.  0.] [ 0.  0.] [ 0.  0.] [ 0.  0.] [ 0.  0.] [ 0.  0.] [ 0.  0.] [ 0.  0.] [ 0.  0.]
[ 1.42689158  2.7198097 ] [ 1.31496301  3.58999907] [ 1.14707016  3.46203005] [ 1.42689158  1.90080793] [ 0.23298684  0.2628044 ] [-0.84898933  0.        ] [-1.01688218 -0.12110268] [-1.12881075 -0.1978841 ] [-1.2967036  -0.24907171] [-1.33401313 -0.27466551] [-1.5392155  -0.37704073] [-1.55787027 -0.32585312] [-1.50190598 -0.35144693] [-1.59517979 -0.37704073] [-1.74441788 -0.37704073] [-1.81903693 -0.45382215] [-1.76307264 -0.42822834] [-1.87500121 -0.53060356] [-1.96827502 -0.55619737] [-2.0242393  -0.63297878] [-2.04289407 -0.63297878] [-2.0242393  -0.76094781] [-2.08020359 -0.78654162] [-2.11751311 -0.88891684] [-1.9309655  -0.94010445] [-1.9309655  -1.01688586] [-1.7817274  -1.06807347] [-1.5392155  -1.17044869] [-1.2034298  -1.17044869] [-0.99822742 -1.09366728] [-0.66244171 -1.09366728] [-0.41992981 -0.99129206] [-0.21472743 -0.86332303] [ 0.         -0.73535401] [ 0.1583678  -0.53060356] [ 0.2516416  -0.37704073] [ 0.36357017 -0.32585312] [ 0.38222494 -0.24907171] [ 0.27029637 -0.14669649] [ 0.47549874  0.        ] [ 0.55011779  0.23721059] [ 0.56877255  0.21161679] [ 0.38222494  0.16042918] [ 0.38222494  0.        ] [ 0.21433208 -0.06991507] [ 0.0091297 -0.1978841] [-0.17741791 -0.14669649] [-0.19607267 -0.1978841 ] [-0.25203696 -0.27466551] [-0.27069172 -0.14669649] [-0.326656   -0.04432127] [-0.30800124 -0.12110268] [-0.34531076 -0.06991507] [-0.38262029 -0.06991507] [-0.34531076 -0.12110268] [-0.41992981 -0.09550888] [-0.28934648 -0.06991507] [-0.326656   -0.12110268] [-0.45723933 -0.09550888] [-0.51320362 -0.06991507] [-0.36396553 -0.09550888] [-0.40127505 -0.06991507] [-0.51320362 -0.09550888] [-0.4758941  -0.12110268] [-0.34531076 -0.12110268] [-0.4758941  0.2883982] [-0.27069172 -0.09550888] [ 0.  0.] [ 0.  0.] [ 0.  0.] [ 0.  0.] [ 0.  0.] [ 0.  0.] [ 0.  0.] [ 0.  0.] [ 0.  0.] [ 0.  0.] [ 0.  0.] [ 0.  0.] [ 0.  0.] [ 0.  0.] [ 0.  0.] [ 0.  0.] [ 0.  0.] [ 0.  0.] [ 0.  0.] [ 0.  0.] [ 0.  0.] [ 0.  0.] [ 0.  0.] [ 0.  0.] [ 0.  0.] [ 0.  0.] [ 0.  0.] [ 0.  0.] [ 0.  0.] [ 0.  0.] [ 0.  0.] [ 0.  0.] [ 0.  0.] [ 0.  0.] [ 0.  0.] [ 0.  0.] [ 0.  0.] [ 0.  0.] [ 0.  0.] [ 0.  0.] [ 0.  0.] [ 0.  0.] [ 0.  0.] [ 0.  0.] [ 0.  0.] [ 0.  0.] [ 0.  0.] [ 0.  0.] [ 0.  0.] [ 0.  0.] [ 0.  0.] [ 0.  0.] [ 0.  0.] [ 0.  0.] [ 0.  0.] [ 0.  0.] [ 0.  0.] [ 0.  0.] [ 0.  0.] [ 0.  0.] [ 0.  0.] [ 0.  0.] [ 0.  0.] [ 0.  0.] [ 0.  0.] [ 0.  0.] [ 0.  0.] [ 0.  0.] [ 0.  0.] [ 0.  0.] [ 0.  0.] [ 0.  0.] [ 0.  0.] [ 0.  0.] [ 0.  0.] [ 0.  0.] [ 0.  0.] [ 0.  0.] [ 0.  0.] [ 0.  0.] [ 0.  0.] [ 0.  0.] [ 0.  0.] [ 0.  0.] [ 0.  0.]
[ 1.10976064  3.33406102] [ 1.07245111  4.05068757] [ 1.05379635  3.89712474] [ 1.31496301  2.2591212 ] [ 0.12105827  0.62111767] [-1.07284647 -0.09550888] [-1.18477503 -0.1978841 ] [-1.4459417  -0.30025932] [-1.52056074 -0.32585312] [-1.72576312 -0.37704073] [-1.70710836 -0.40263454] [-1.74441788 -0.50500976] [-1.85634645 -0.42822834] [-1.94962026 -0.45382215] [-1.89365597 -0.45382215] [-1.98692978 -0.45382215] [-2.0242393  -0.50500976] [-2.11751311 -0.63297878] [-2.09885835 -0.68416639] [-2.21078692 -0.68416639] [-2.24809644 -0.83772923] [-2.11751311 -0.73535401] [-2.11751311 -0.81213542] [-1.96827502 -0.91451064] [-1.91231074 -0.96569825] [-1.66979884 -0.96569825] [-1.42728693 -0.91451064] [-1.14746551 -0.68416639] [-0.75571552 -0.60738498] [-0.40127505 -0.73535401] [-0.17741791 -0.76094781] [-0.0841441  -0.65857259] [ 0.0091297  -0.86332303] [ 0.04643923 -0.55619737] [ 0.10240351 -0.45382215] [ 0.19567732 -0.42822834] [ 0.17702256 -0.24907171] [ 0.13971304 -0.17229029] [ 0.04643923 -0.12110268] [-0.02817982 -0.06991507] [-0.0841441  -0.04432127] [-0.10279886 -0.09550888] [-0.14010839 -0.06991507] [-0.12145363 -0.01872746] [-0.17741791 -0.01872746] [-0.25203696 -0.06991507] [-0.15876315  0.00686635] [-0.19607267  0.00686635] [-0.25203696  0.05805396] [-0.17741791  0.08364776] [-0.14010839  0.00686635] [-0.10279886  0.05805396] [ 0.04643923  0.2883982 ] [ 0.10240351  0.2628044 ] [ 0.13971304  0.23721059] [ 0.08374875  0.36517962] [-0.00952506  0.41636723] [ 0.08374875  0.46755484] [ 0.08374875  0.46755484] [ 0.10240351  0.23721059] [-0.0841441   0.00686635] [-0.15876315  0.        ] [-0.36396553 -0.12110268] [-0.49454886 -0.14669649] [-0.58782266 -0.09550888] [-0.58782266 -0.1978841 ] [-0.55051314 -0.04432127] [-0.60647743 -0.12110268] [-0.64378695 -0.17229029] [-0.66244171 -0.14669649] [-0.5691679  -0.12110268] [-0.64378695 -0.14669649] [-0.64378695 -0.06991507] [-0.62513219 -0.04432127] [-0.5691679  -0.06991507] [-0.66244171 -0.04432127] [-0.62513219  0.00686635] [-0.62513219 -0.04432127] [-0.60647743 -0.01872746] [-0.64378695  0.05805396] [-0.64378695 -0.01872746] [-0.53185838  0.08364776] [-0.4758941   0.08364776] [-0.49454886  0.10924157] [-0.51320362  0.05805396] [-0.40127505  0.16042918] [-0.326656    0.05805396] [-0.30800124  0.08364776] [-0.02817982  0.39077342] [ 0.17702256  0.31399201] [ 0.08374875  0.67230528] [ 0.55011779  0.49314864] [ 0.  0.] [ 0.  0.] [ 0.  0.] [ 0.  0.] [ 0.  0.] [ 0.  0.] [ 0.  0.] [ 0.  0.] [ 0.  0.] [ 0.  0.] [ 0.  0.] [ 0.  0.] [ 0.  0.] [ 0.  0.] [ 0.  0.] [ 0.  0.] [ 0.  0.] [ 0.  0.] [ 0.  0.] [ 0.  0.] [ 0.  0.] [ 0.  0.] [ 0.  0.] [ 0.  0.] [ 0.  0.] [ 0.  0.] [ 0.  0.] [ 0.  0.] [ 0.  0.] [ 0.  0.] [ 0.  0.] [ 0.  0.] [ 0.  0.] [ 0.  0.] [ 0.  0.] [ 0.  0.] [ 0.  0.] [ 0.  0.] [ 0.  0.] [ 0.  0.] [ 0.  0.] [ 0.  0.] [ 0.  0.] [ 0.  0.] [ 0.  0.] [ 0.  0.] [ 0.  0.] [ 0.  0.] [ 0.  0.] [ 0.  0.] [ 0.  0.] [ 0.  0.] [ 0.  0.] [ 0.  0.] [ 0.  0.] [ 0.  0.] [ 0.  0.] [ 0.  0.] [ 0.  0.] [ 0.  0.]
[ 0.45684398  1.41452563] [ 0.94186778  1.38893183] [ 1.38958206  2.89896633] [ 1.22168921  3.10371677] [ 1.29630825  2.48946545] [ 1.14707016  0.85146192] [-0.04683458 -0.65857259] [-0.2333822  -0.42822834] [-0.0841441   0.05805396] [-0.73706076 -0.45382215] [-0.45723933 -0.24907171] [-0.34531076  0.10924157] [-0.60647743 -0.2234779 ] [-0.8116798  -0.47941595] [-0.718406   -0.35144693] [-0.34531076 -0.06991507] [-0.2333822  -0.14669649] [-1.12881075 -0.1978841 ] [-0.83033457 -0.58179117] [-1.12881075 -0.01872746] [-0.49454886 -0.35144693] [-0.49454886 -0.50500976] [-1.0541917  -0.83772923] [-0.69975123 -1.04247967] [-1.14746551 -1.32401152] [-1.35266789 -1.50316816] [-1.6884536 -1.7079186] [-1.38997741 -1.65673099] [-1.48325122 -1.75910621] [-1.2034298 -1.7079186] [-0.90495361 -1.50316816] [-0.62513219 -1.63113719] [-0.36396553 -1.34960533] [-0.15876315 -1.47757436] [ 0.27029637 -1.32401152] [ 0.53146303 -1.11926108] [ 0.69935588 -0.99129206] [ 0.84859397 -0.76094781] [ 0.96052254 -0.7097602 ] [ 0.73666541 -0.68416639] [ 0.81128445 -0.60738498] [ 0.68070112 -0.40263454] [ 0.81128445 -0.53060356] [ 0.51280827 -0.32585312] [ 0.55011779 -0.30025932] [ 0.60608207 -0.53060356] [ 0.36357017 -0.32585312] [ 0.81128445 -0.27466551] [ 0.71801064 -0.06991507] [ 0.56877255 -0.17229029] [ 0.51280827 -0.30025932] [ 0.71801064 -0.30025932] [ 0.43818922 -0.37704073] [ 0.86724874  0.05805396] [ 0.82993921 -0.12110268] [ 1.78133205 -0.86332303] [ 2.96590941 -1.73351241] [ 3.98259392 -1.2216363 ] [ 3.21774869  0.40357033] [ 2.02384395  0.44196103] [ 0.  0.] [ 0.  0.] [ 0.  0.] [ 0.  0.] [ 0.  0.] [ 0.  0.] [ 0.  0.] [ 0.  0.] [ 0.  0.] [ 0.  0.] [ 0.  0.] [ 0.  0.] [ 0.  0.] [ 0.  0.] [ 0.  0.] [ 0.  0.] [ 0.  0.] [ 0.  0.] [ 0.  0.] [ 0.  0.] [ 0.  0.] [ 0.  0.] [ 0.  0.] [ 0.  0.] [ 0.  0.] [ 0.  0.] [ 0.  0.] [ 0.  0.] [ 0.  0.] [ 0.  0.] [ 0.  0.] [ 0.  0.] [ 0.  0.] [ 0.  0.] [ 0.  0.] [ 0.  0.] [ 0.  0.] [ 0.  0.] [ 0.  0.] [ 0.  0.] [ 0.  0.] [ 0.  0.] [ 0.  0.] [ 0.  0.] [ 0.  0.] [ 0.  0.] [ 0.  0.] [ 0.  0.] [ 0.  0.] [ 0.  0.] [ 0.  0.] [ 0.  0.] [ 0.  0.] [ 0.  0.] [ 0.  0.] [ 0.  0.] [ 0.  0.] [ 0.  0.] [ 0.  0.] [ 0.  0.] [ 0.  0.] [ 0.  0.] [ 0.  0.] [ 0.  0.] [ 0.  0.] [ 0.  0.] [ 0.  0.] [ 0.  0.] [ 0.  0.] [ 0.  0.] [ 0.  0.] [ 0.  0.] [ 0.  0.] [ 0.  0.] [ 0.  0.] [ 0.  0.] [ 0.  0.] [ 0.  0.] [ 0.  0.] [ 0.  0.] [ 0.  0.] [ 0.  0.] [ 0.  0.] [ 0.  0.] [ 0.  0.] [ 0.  0.] [ 0.  0.] [ 0.  0.] [ 0.  0.] [ 0.  0.] [ 0.  0.] [ 0.  0.]
[ 0.99783207  1.2609628 ] [ 2.098463    1.72165129] [ 2.24770109  2.61743448] [ 2.26635585  2.69421589] [ 2.5834868   1.92640174] [ 1.98653443  0.2883982 ] [ 0.79262969 -0.27466551] [-0.40127505 -0.55619737] [-0.73706076 -0.40263454] [-0.84898933 -0.55619737] [-1.11015599 -0.76094781] [-1.07284647 -0.47941595] [-1.09150123 -0.7097602 ] [-0.99822742 -0.40263454] [-1.31535837 -0.88891684] [-1.14746551 -0.32585312] [-1.16612027 -0.96569825] [-1.2967036  -0.58179117] [-1.33401313 -0.81213542] [-1.42728693 -0.86332303] [-1.66979884 -0.68416639] [-1.55787027 -0.81213542] [-1.5392155  -0.86332303] [-1.59517979 -0.88891684] [-1.48325122 -0.99129206] [-1.48325122 -1.11926108] [-1.2967036 -1.2216363] [-1.22208456 -1.34960533] [-0.83033457 -1.17044869] [-0.718406   -1.09366728] [-0.34531076 -1.17044869] [-0.17741791 -0.76094781] [-0.06548934 -0.91451064] [ 0.58742731 -0.96569825] [ 0.34491541 -0.53060356] [ 0.71801064 -0.42822834] [ 0.82993921 -0.58179117] [ 0.60608207 -0.45382215] [ 1.25899873 -0.09550888] [ 0.36357017 -0.14669649] [ 0.99783207 -0.06991507] [ 0.51280827 -0.1978841 ] [ 0.69935588 -0.04432127] [ 0.53146303  0.13483537] [ 0.27029637 -0.04432127] [ 0.73666541 -0.04432127] [ 0.38222494 -0.01872746] [ 0.53146303 -0.01872746] [ 0.30760589  0.05805396] [ 0.53146303  0.2628044 ] [ 0.27029637  0.10924157] [ 0.51280827 -0.04432127] [ 0.30760589  0.05805396] [ 0.2516416  0.       ] [ 0.28895113 -0.04432127] [ 0.34491541 -0.01872746] [ 0.23298684 -0.04432127] [ 0.19567732 -0.14669649] [ 0.27029637 -0.12110268] [ 0.12105827 -0.12110268] [ 0.17702256 -0.01872746] [ 0.1583678   0.08364776] [ 0.23298684  0.05805396] [ 0.19567732 -0.01872746] [ 0.10240351  0.13483537] [ 0.1583678   0.10924157] [ 0.23298684  0.        ] [ 0.06509399  0.00686635] [ 0.0091297  -0.01872746] [ 0.17702256 -0.04432127] [ 0.04643923 -0.01872746] [ 0.0091297  -0.04432127] [-0.04683458 -0.14669649] [ 0.04643923 -0.14669649] [ 0.08374875  0.00686635] [ 0.2516416  -0.01872746] [ 0.17702256  0.13483537] [ 0.68070112  0.36517962] [ 0.23298684  0.16042918] [ 0.38222494  0.08364776] [ 0.17702256 -0.14669649] [ 0.17702256 -0.14669649] [ 0.12105827 -0.06991507] [-0.04683458 -0.06991507] [-0.00952506 -0.14669649] [ 0.1583678 -0.1978841] [-0.00952506 -0.01872746] [ 0.10240351 -0.09550888] [ 0.08374875 -0.06991507] [-0.0841441  -0.04432127] [-0.14010839 -0.06991507] [ 0.08374875 -0.04432127] [-0.06548934  0.10924157] [-0.04683458  0.00686635] [ 0.08374875  0.00686635] [-0.0841441  0.       ] [-0.15876315  0.08364776] [-0.04683458  0.18602298] [ 0.13971304  0.46755484] [ 0.19567732 -0.04432127] [ 1.25899873 -1.42638675] [ 2.21039157 -2.73167081] [ 2.00518919 -1.10646418] [ 1.8559511   0.51874245] [ 0.66204636  0.46755484] [-0.04683458  1.49130705] [ 0.  0.] [ 0.  0.] [ 0.  0.] [ 0.  0.] [ 0.  0.] [ 0.  0.] [ 0.  0.] [ 0.  0.] [ 0.  0.] [ 0.  0.] [ 0.  0.] [ 0.  0.] [ 0.  0.] [ 0.  0.] [ 0.  0.] [ 0.  0.] [ 0.  0.] [ 0.  0.] [ 0.  0.] [ 0.  0.] [ 0.  0.] [ 0.  0.] [ 0.  0.] [ 0.  0.] [ 0.  0.] [ 0.  0.] [ 0.  0.] [ 0.  0.] [ 0.  0.] [ 0.  0.] [ 0.  0.] [ 0.  0.] [ 0.  0.] [ 0.  0.] [ 0.  0.] [ 0.  0.] [ 0.  0.] [ 0.  0.] [ 0.  0.] [ 0.  0.] [ 0.  0.] [ 0.  0.] [ 0.  0.] [ 0.  0.] [ 0.  0.] [ 0.  0.]
[ 0.73666541  3.206092  ] [ 0.90455826  4.38340703] [ 0.0091297   4.43459464] [-0.04683458  2.79659111] [-0.38262029  1.15858758] [-0.45723933  0.41636723] [-0.66244171  0.00686635] [-0.55051314 -0.27466551] [-1.31535837 -0.45382215] [-1.2967036  -0.63297878] [-1.2967036  -0.53060356] [-1.52056074 -0.50500976] [-1.52056074 -0.78654162] [-1.27804884 -0.55619737] [-1.61383455 -0.63297878] [-1.7817274  -0.76094781] [-1.52056074 -0.63297878] [-2.15482264 -0.81213542] [-1.33401313 -0.81213542] [-1.87500121 -0.7097602 ] [-1.98692978 -1.06807347] [-1.76307264 -0.96569825] [-1.9309655  -1.06807347] [-1.65114407 -1.14485489] [-1.33401313 -1.32401152] [-1.55787027 -1.27282391] [-0.94226313 -1.2216363 ] [-0.9609179  -1.32401152] [-0.45723933 -1.09366728] [-0.14010839 -0.96569825] [-0.0841441  -0.96569825] [ 0.13971304 -0.96569825] [ 0.4008797  -0.47941595] [ 0.38222494 -0.47941595] [ 0.56877255 -0.45382215] [ 0.53146303 -0.17229029] [ 0.69935588 -0.14669649] [ 0.43818922  0.08364776] [ 0.36357017  0.00686635] [ 0.12105827 -0.04432127] [ 0.6433916   0.10924157] [ 0.13971304  0.18602298] [ 0.04643923  0.08364776] [ 0.21433208  0.18602298] [ 0.17702256  0.18602298] [ 0.2516416   0.00686635] [ 0.2516416   0.21161679] [ 0.06509399  0.10924157] [ 0.17702256  0.08364776] [ 0.08374875  0.10924157] [ 0.10240351  0.05805396] [-0.02817982  0.        ] [ 0.13971304  0.        ] [-0.12145363  0.10924157] [-0.02817982 -0.04432127] [-0.04683458  0.        ] [-0.00952506  0.        ] [-0.17741791  0.00686635] [-0.10279886  0.05805396] [-0.15876315  0.05805396] [-0.14010839  0.        ] [-0.15876315  0.05805396] [-0.10279886  0.13483537] [-0.14010839 -0.04432127] [-0.12145363  0.08364776] [-0.19607267  0.08364776] [-0.14010839  0.08364776] [-0.10279886  0.08364776] [-0.14010839  0.        ] [-0.25203696  0.16042918] [-0.04683458 -0.01872746] [-0.0841441   0.13483537] [-0.14010839  0.10924157] [-0.15876315  0.08364776] [ 0.0091297   0.18602298] [-0.04683458  0.23721059] [-0.02817982  0.00686635] [-0.14010839  0.21161679] [-0.10279886  0.10924157] [ 0.10240351  0.13483537] [-0.0841441   0.18602298] [-0.10279886  0.13483537] [ 0.06509399  0.18602298] [-0.06548934  0.21161679] [-0.06548934  0.23721059] [ 0.          0.23721059] [-0.12145363  0.31399201] [ 0.08374875  0.21161679] [-0.00952506  0.39077342] [-0.10279886  0.2883982 ] [ 0.17702256  0.33958581] [ 0.         0.2883982] [-0.10279886  0.31399201] [ 0.          0.18602298] [ 0.0091297   0.54433625] [ 0.04643923  0.08364776] [-0.00952506  0.46755484] [-0.0841441   0.16042918] [-0.00952506  0.21161679] [ 0.13971304  0.46755484] [ 0.          0.08364776] [-0.12145363  0.2628044 ] [ 0.12105827  0.13483537] [ 0.06509399  0.31399201] [ 0.17702256  0.23721059] [ 0.0091297  0.2883982] [ 0.04643923  0.23721059] [ 0.12105827  0.54433625] [ 0.12105827  0.08364776] [ 0.08374875  0.10924157] [ 0.13971304  0.56993006] [ 0.1583678   0.13483537] [ 0.08374875  0.59552386] [ 0.10240351  0.10924157] [ 0.27029637  0.36517962] [ 0.28895113  0.16042918] [ 0.13971304  0.31399201] [ 0.21433208  0.36517962] [ 0.4008797   0.33958581] [ 0.36357017  0.54433625] [ 0.47549874  0.72349289] [ 0.58742731  0.69789909] [ 0.4008797   0.51874245] [ 0.4008797   0.36517962] [ 0.32626065  0.10924157] [ 0.1583678  0.2628044] [ 0.04643923  0.18602298] [ 0.23298684  0.18602298] [ 0.          0.18602298] [ 0.10240351  0.05805396] [ 0.04643923  0.2883982 ] [ 0.17702256  0.31399201] [-0.04683458  0.23721059] [ 0.04643923  0.21161679] [ 0.          0.36517962] [ 0.12105827  0.18602298] [-0.00952506  0.21161679] [ 0.10240351  0.39077342] [ 0.28895113  0.56993006] [ 0.56877255  0.08364776] [ 1.40823682 -1.55435577] [ 2.3409749 -3.1923593] [ 1.91191538 -1.56715267] [ 1.18437968  0.05805396] [-0.00952506  0.51874245] [-0.30800124  1.67046368] [ 0.04643923  2.61743448] [ 0.  0.] [ 0.  0.] [ 0.  0.] [ 0.  0.] [ 0.  0.]
[ 1.35227254  3.12931058] [ 1.20303444  4.2298442 ] [ 1.33361778  4.51137606] [ 1.59478444  2.87337253] [ 0.4008797   1.23536899] [-0.17741791  0.36517962] [-0.15876315  0.31399201] [-0.4758941  -0.27466551] [-0.97957266 -0.42822834] [-1.0541917 -0.2234779] [-1.09150123 -0.32585312] [-1.22208456 -0.42822834] [-1.33401313 -0.27466551] [-1.35266789 -0.47941595] [-1.33401313 -0.63297878] [-1.57652503 -0.53060356] [-1.25939408 -0.45382215] [-1.50190598 -0.63297878] [-1.48325122 -0.42822834] [-1.33401313 -0.63297878] [-1.72576312 -0.78654162] [-1.66979884 -0.86332303] [-1.46459646 -0.88891684] [-1.63248931 -1.14485489] [-1.50190598 -1.14485489] [-1.12881075 -0.83772923] [-1.07284647 -1.24723011] [-0.77437028 -1.06807347] [-0.75571552 -0.99129206] [-0.19607267 -0.73535401] [-0.00952506 -0.7097602 ] [ 0.10240351 -0.40263454] [ 0.53146303 -0.53060356] [ 0.58742731 -0.53060356] [ 0.58742731 -0.42822834] [ 0.53146303 -0.55619737] [ 0.4008797  -0.30025932] [ 0.69935588 -0.09550888] [ 0.19567732 -0.32585312] [ 0.36357017 -0.27466551] [ 0.28895113 -0.1978841 ] [ 0.23298684 -0.1978841 ] [ 0.21433208 -0.12110268] [ 0.17702256 -0.2234779 ] [ 0.21433208 -0.09550888] [ 0.27029637 -0.14669649] [ 0.13971304 -0.01872746] [ 0.32626065 -0.06991507] [ 0.17702256  0.        ] [ 0.23298684 -0.09550888] [ 0.43818922 -0.01872746] [ 0.27029637 -0.04432127] [ 0.53146303  0.21161679] [ 0.62473684  0.21161679] [ 0.47549874  0.33958581] [ 0.23298684  0.2628044 ] [ 0.53146303  0.23721059] [ 0.53146303  0.05805396] [ 0.30760589  0.        ] [ 0.21433208 -0.09550888] [-0.04683458 -0.01872746] [-0.06548934 -0.1978841 ] [-0.19607267 -0.24907171] [-0.14010839 -0.04432127] [-0.326656   -0.12110268] [-0.06548934 -0.09550888] [-0.326656   -0.01872746] [-0.28934648 -0.09550888] [-0.27069172 -0.12110268] [-0.30800124 -0.12110268] [-0.34531076 -0.04432127] [-0.40127505 -0.04432127] [-0.28934648 -0.09550888] [-0.28934648 -0.06991507] [-0.38262029 -0.09550888] [-0.43858457 -0.01872746] [-0.21472743 -0.12110268] [-0.25203696  0.00686635] [-0.30800124 -0.06991507] [-0.21472743 -0.17229029] [-0.25203696  0.08364776] [-0.17741791  0.        ] [-0.0841441  -0.01872746] [-0.17741791 -0.12110268] [-0.06548934  0.        ] [ 0.19567732  0.13483537] [ 0.2516416   0.16042918] [ 0.19567732  0.23721059] [ 0.30760589  0.51874245] [ 0.69935588  0.69789909] [ 0.8859035   0.21161679] [ 0.  0.] [ 0.  0.] [ 0.  0.] [ 0.  0.] [ 0.  0.] [ 0.  0.] [ 0.  0.] [ 0.  0.] [ 0.  0.] [ 0.  0.] [ 0.  0.] [ 0.  0.] [ 0.  0.] [ 0.  0.] [ 0.  0.] [ 0.  0.] [ 0.  0.] [ 0.  0.] [ 0.  0.] [ 0.  0.] [ 0.  0.] [ 0.  0.] [ 0.  0.] [ 0.  0.] [ 0.  0.] [ 0.  0.] [ 0.  0.] [ 0.  0.] [ 0.  0.] [ 0.  0.] [ 0.  0.] [ 0.  0.] [ 0.  0.] [ 0.  0.] [ 0.  0.] [ 0.  0.] [ 0.  0.] [ 0.  0.] [ 0.  0.] [ 0.  0.] [ 0.  0.] [ 0.  0.] [ 0.  0.] [ 0.  0.] [ 0.  0.] [ 0.  0.] [ 0.  0.] [ 0.  0.] [ 0.  0.] [ 0.  0.] [ 0.  0.] [ 0.  0.] [ 0.  0.] [ 0.  0.] [ 0.  0.] [ 0.  0.] [ 0.  0.] [ 0.  0.] [ 0.  0.] [ 0.  0.] [ 0.  0.]
[ 2.61146894 -1.81029382] [ 3.7960463  -2.70607701] [ 2.67676061 -1.08087038] [ 2.95658203  0.54433625] [ 1.76267729  0.49314864] [ 0.79262969  1.31215041] [ 1.27765349  2.02877696] [ 1.55747491  3.02693536] [ 1.63209396  3.76915571] [ 1.46420111  3.206092  ] [ 1.59478444  1.56808846] [ 0.69935588 -0.01872746] [ 0.49415351 -0.12110268] [ 0.4008797  -0.14669649] [ 0.36357017 -0.27466551] [ 0.1583678 -0.1978841] [ 0.0091297  -0.30025932] [ 0.17702256 -0.32585312] [ 0.08374875 -0.24907171] [-0.14010839 -0.32585312] [-0.0841441  -0.45382215] [-0.10279886 -0.35144693] [-0.2333822  -0.32585312] [-0.28934648 -0.47941595] [-0.41992981 -0.50500976] [-0.38262029 -0.47941595] [-0.49454886 -0.60738498] [-0.5691679  -0.58179117] [-0.60647743 -0.55619737] [-0.5691679  -0.65857259] [-0.58782266 -0.76094781] [-0.64378695 -0.7097602 ] [-0.69975123 -0.88891684] [-0.69975123 -0.94010445] [-0.68109647 -0.83772923] [-0.10279886 -0.83772923] [ 0.         -0.65857259] [ 0.53146303 -0.47941595] [ 0.75532017 -0.60738498] [ 1.1284154  -0.45382215] [ 1.46420111 -0.53060356] [ 1.38958206 -0.73535401] [ 1.1284154  -0.65857259] [ 1.18437968 -0.47941595] [ 1.27765349 -0.40263454] [ 1.27765349 -0.40263454] [ 1.14707016 -0.30025932] [ 1.16572492 -0.2234779 ] [ 1.1284154 -0.1978841] [ 1.05379635 -0.09550888] [ 0.99783207 -0.14669649] [ 0.92321302 -0.12110268] [ 0.97917731 -0.04432127] [ 1.01648683 -0.17229029] [ 0.86724874  0.00686635] [ 1.07245111  0.        ] [ 1.10976064 -0.06991507] [ 1.09110587 -0.06991507] [ 1.05379635  0.08364776] [ 1.16572492 -0.04432127] [ 1.1284154  0.       ] [ 1.18437968  0.08364776] [ 1.29630825  0.23721059] [ 1.96787967 -0.14669649] [ 3.12447488 -1.27282391] [ 4.30905224 -1.96385665] [ 3.64680821 -0.33865002] [ 3.42295107  0.7746805 ] [ 2.22904633  1.31215041] [ 0.  0.] [ 0.  0.] [ 0.  0.] [ 0.  0.] [ 0.  0.] [ 0.  0.] [ 0.  0.] [ 0.  0.] [ 0.  0.] [ 0.  0.] [ 0.  0.] [ 0.  0.] [ 0.  0.] [ 0.  0.] [ 0.  0.] [ 0.  0.] [ 0.  0.] [ 0.  0.] [ 0.  0.] [ 0.  0.] [ 0.  0.] [ 0.  0.] [ 0.  0.] [ 0.  0.] [ 0.  0.] [ 0.  0.] [ 0.  0.] [ 0.  0.] [ 0.  0.] [ 0.  0.] [ 0.  0.] [ 0.  0.] [ 0.  0.] [ 0.  0.] [ 0.  0.] [ 0.  0.] [ 0.  0.] [ 0.  0.] [ 0.  0.] [ 0.  0.] [ 0.  0.] [ 0.  0.] [ 0.  0.] [ 0.  0.] [ 0.  0.] [ 0.  0.] [ 0.  0.] [ 0.  0.] [ 0.  0.] [ 0.  0.] [ 0.  0.] [ 0.  0.] [ 0.  0.] [ 0.  0.] [ 0.  0.] [ 0.  0.] [ 0.  0.] [ 0.  0.] [ 0.  0.] [ 0.  0.] [ 0.  0.] [ 0.  0.] [ 0.  0.] [ 0.  0.] [ 0.  0.] [ 0.  0.] [ 0.  0.] [ 0.  0.] [ 0.  0.] [ 0.  0.] [ 0.  0.] [ 0.  0.] [ 0.  0.] [ 0.  0.] [ 0.  0.] [ 0.  0.] [ 0.  0.] [ 0.  0.] [ 0.  0.] [ 0.  0.] [ 0.  0.] [ 0.  0.] [ 0.  0.]
[ 1.96787967  1.92640174] [ 2.35962966  2.51505925] [ 2.39693918  3.51321766] [ 2.30366538  3.97390615] [ 2.62079632  2.33590262] [ 1.50151063  0.69789909] [ 0.30760589  0.00686635] [ 0.         -0.35144693] [-0.30800124 -0.53060356] [-0.45723933 -0.45382215] [-0.62513219 -0.55619737] [-0.66244171 -0.63297878] [-0.8116798  -0.60738498] [-0.88629885 -0.58179117] [-0.86764409 -0.63297878] [-0.9609179  -0.58179117] [-1.0541917  -0.65857259] [-1.01688218 -0.68416639] [-1.01688218 -0.73535401] [-1.0541917  -0.76094781] [-1.18477503 -0.88891684] [-1.33401313 -0.94010445] [-1.37132265 -0.99129206] [-1.27804884 -1.04247967] [-1.33401313 -1.06807347] [-1.22208456 -1.04247967] [-1.09150123 -1.24723011] [-0.83033457 -1.2216363 ] [-0.68109647 -1.2216363 ] [-0.326656   -1.04247967] [-0.14010839 -0.91451064] [ 0.21433208 -0.63297878] [ 0.53146303 -0.78654162] [ 0.69935588 -0.83772923] [ 0.69935588 -0.73535401] [ 0.66204636 -0.76094781] [ 0.79262969 -0.55619737] [ 0.82993921 -0.32585312] [ 0.81128445 -0.37704073] [ 0.73666541 -0.2234779 ] [ 0.62473684 -0.2234779 ] [ 0.6433916  -0.17229029] [ 0.6433916  -0.06991507] [ 0.55011779  0.        ] [ 0.55011779 -0.12110268] [ 0.6433916  0.       ] [ 0.56877255 -0.01872746] [ 0.62473684  0.05805396] [ 0.58742731  0.10924157] [ 0.71801064  0.21161679] [ 0.77397493  0.21161679] [ 0.82993921  0.23721059] [ 0.99783207  0.44196103] [ 0.96052254  0.46755484] [ 0.71801064  0.62111767] [ 0.71801064  0.44196103] [ 0.84859397  0.33958581] [ 0.79262969  0.18602298] [ 0.62473684  0.21161679] [ 0.43818922  0.00686635] [ 0.19567732 -0.01872746] [ 0.1583678   0.05805396] [ 0.08374875 -0.06991507] [ 0.04643923 -0.04432127] [-0.02817982 -0.01872746] [ 0.          0.05805396] [-0.02817982  0.        ] [-0.00952506  0.00686635] [ 0.0091297   0.00686635] [-0.02817982 -0.01872746] [ 0.0091297  0.2883982] [ 0.1583678   0.36517962] [ 0.32626065 -0.12110268] [ 0.  0.] [ 0.  0.] [ 0.  0.] [ 0.  0.] [ 0.  0.] [ 0.  0.] [ 0.  0.] [ 0.  0.] [ 0.  0.] [ 0.  0.] [ 0.  0.] [ 0.  0.] [ 0.  0.] [ 0.  0.] [ 0.  0.] [ 0.  0.] [ 0.  0.] [ 0.  0.] [ 0.  0.] [ 0.  0.] [ 0.  0.] [ 0.  0.] [ 0.  0.] [ 0.  0.] [ 0.  0.] [ 0.  0.] [ 0.  0.] [ 0.  0.] [ 0.  0.] [ 0.  0.] [ 0.  0.] [ 0.  0.] [ 0.  0.] [ 0.  0.] [ 0.  0.] [ 0.  0.] [ 0.  0.] [ 0.  0.] [ 0.  0.] [ 0.  0.] [ 0.  0.] [ 0.  0.] [ 0.  0.] [ 0.  0.] [ 0.  0.] [ 0.  0.] [ 0.  0.] [ 0.  0.] [ 0.  0.] [ 0.  0.] [ 0.  0.] [ 0.  0.] [ 0.  0.] [ 0.  0.] [ 0.  0.] [ 0.  0.] [ 0.  0.] [ 0.  0.] [ 0.  0.] [ 0.  0.] [ 0.  0.] [ 0.  0.] [ 0.  0.] [ 0.  0.] [ 0.  0.] [ 0.  0.] [ 0.  0.] [ 0.  0.] [ 0.  0.] [ 0.  0.] [ 0.  0.] [ 0.  0.] [ 0.  0.] [ 0.  0.] [ 0.  0.] [ 0.  0.] [ 0.  0.] [ 0.  0.] [ 0.  0.]
[ 1.46420111 -1.75910621] [ 2.64877846 -2.78285842] [ 1.94922491 -1.15765179] [ 2.47155823  0.46755484] [ 1.27765349  0.87705572] [ 0.47549874  1.84962032] [ 1.01648683  2.43827784] [ 1.22168921  3.33406102] [ 0.81128445  4.2042504 ] [ 0.84859397  3.35965483] [ 0.99783207  1.72165129] [-0.00952506  0.21161679] [-0.15876315  0.13483537] [-0.19607267  0.13483537] [-0.36396553  0.33958581] [-0.326656    0.10924157] [-0.34531076  0.13483537] [-0.326656   -0.14669649] [-0.51320362 -0.17229029] [-0.97957266 -0.65857259] [-1.11015599 -0.42822834] [-1.5392155  -0.45382215] [-1.70710836 -0.65857259] [-1.83769169 -0.55619737] [-1.9309655  -0.78654162] [-2.15482264 -0.68416639] [-2.24809644 -0.91451064] [-2.22944168 -0.91451064] [-2.32271549 -1.01688586] [-2.47195358 -1.14485489] [-2.37867977 -1.09366728] [-2.2667512  -1.42638675] [-2.2667512  -1.27282391] [-1.96827502 -1.40079294] [-1.91231074 -1.50316816] [-1.5392155  -1.37519914] [-1.12881075 -1.27282391] [-0.84898933 -1.24723011] [-0.62513219 -1.01688586] [-0.2333822  -0.96569825] [ 0.         -0.78654162] [ 0.23298684 -0.50500976] [ 0.32626065 -0.40263454] [ 0.55011779 -0.24907171] [ 0.51280827 -0.09550888] [ 0.58742731 -0.01872746] [ 0.45684398 -0.06991507] [ 0.47549874  0.08364776] [ 0.45684398  0.10924157] [ 0.32626065  0.05805396] [ 0.30760589  0.10924157] [ 0.41953446  0.13483537] [ 0.32626065  0.13483537] [ 0.21433208  0.05805396] [ 0.27029637  0.2883982 ] [ 0.28895113  0.10924157] [ 0.2516416   0.18602298] [ 0.27029637  0.16042918] [ 0.23298684  0.18602298] [ 0.1583678   0.16042918] [ 0.17702256  0.18602298] [ 0.08374875  0.13483537] [ 0.1583678   0.21161679] [ 0.10240351  0.18602298] [ 0.21433208  0.18602298] [ 0.28895113  0.31399201] [ 0.81128445 -0.1978841 ] [ 1.79998681 -1.83588763] [ 2.69541537 -2.42454515] [ 1.78133205 -0.79933852] [ 2.39693918  0.82586811] [ 1.20303444  1.46571324] [ 1.01648683  2.2335274 ] [ 0.  0.] [ 0.  0.] [ 0.  0.] [ 0.  0.] [ 0.  0.] [ 0.  0.] [ 0.  0.] [ 0.  0.] [ 0.  0.] [ 0.  0.] [ 0.  0.] [ 0.  0.] [ 0.  0.] [ 0.  0.] [ 0.  0.] [ 0.  0.] [ 0.  0.] [ 0.  0.] [ 0.  0.] [ 0.  0.] [ 0.  0.] [ 0.  0.] [ 0.  0.] [ 0.  0.] [ 0.  0.] [ 0.  0.] [ 0.  0.] [ 0.  0.] [ 0.  0.] [ 0.  0.] [ 0.  0.] [ 0.  0.] [ 0.  0.] [ 0.  0.] [ 0.  0.] [ 0.  0.] [ 0.  0.] [ 0.  0.] [ 0.  0.] [ 0.  0.] [ 0.  0.] [ 0.  0.] [ 0.  0.] [ 0.  0.] [ 0.  0.] [ 0.  0.] [ 0.  0.] [ 0.  0.] [ 0.  0.] [ 0.  0.] [ 0.  0.] [ 0.  0.] [ 0.  0.] [ 0.  0.] [ 0.  0.] [ 0.  0.] [ 0.  0.] [ 0.  0.] [ 0.  0.] [ 0.  0.] [ 0.  0.] [ 0.  0.] [ 0.  0.] [ 0.  0.] [ 0.  0.] [ 0.  0.] [ 0.  0.] [ 0.  0.] [ 0.  0.] [ 0.  0.] [ 0.  0.] [ 0.  0.] [ 0.  0.] [ 0.  0.] [ 0.  0.] [ 0.  0.] [ 0.  0.] [ 0.  0.] [ 0.  0.]
[ 1.3709273  -1.27282391] [ 2.55550466 -2.55251417] [ 2.8259987  -0.92730754] [ 2.78868918  0.69789909] [ 1.59478444  0.56993006] [ 0.4008797  1.7728389] [ 1.05379635  2.51505925] [ 1.25899873  3.53881146] [ 0.75532017  4.61375128] [ 0.84859397  3.92271854] [ 0.92321302  2.28471501] [ 0.28895113  0.64671148] [-0.41992981 -0.14669649] [-0.14010839 -0.1978841 ] [-0.66244171 -0.37704073] [-0.41992981 -0.45382215] [-0.49454886 -0.27466551] [-0.99822742 -0.35144693] [-0.58782266 -0.45382215] [-0.90495361 -0.30025932] [-0.62513219 -0.45382215] [-1.03553694 -0.45382215] [-0.68109647 -0.37704073] [-1.18477503 -0.50500976] [-1.27804884 -0.63297878] [-0.97957266 -0.63297878] [-1.09150123 -0.7097602 ] [-1.24073932 -0.7097602 ] [-1.24073932 -0.76094781] [-1.03553694 -0.94010445] [-1.22208456 -0.99129206] [-1.0541917  -0.99129206] [-1.0541917  -1.01688586] [-0.88629885 -1.24723011] [-0.60647743 -1.27282391] [-0.45723933 -1.17044869] [-0.10279886 -1.27282391] [ 0.0091297  -1.04247967] [ 0.36357017 -1.04247967] [ 0.1583678  -0.83772923] [ 0.69935588 -0.7097602 ] [ 0.79262969 -0.50500976] [ 0.82993921 -0.50500976] [ 0.8859035  -0.30025932] [ 1.09110587 -0.14669649] [ 0.90455826 -0.2234779 ] [ 0.79262969 -0.04432127] [ 1.07245111 -0.06991507] [ 0.60608207 -0.14669649] [ 1.18437968 -0.01872746] [ 0.62473684  0.08364776] [ 0.92321302 -0.09550888] [ 0.94186778  0.        ] [ 0.82993921 -0.06991507] [ 0.79262969 -0.01872746] [ 0.84859397 -0.12110268] [ 0.77397493  0.05805396] [ 0.73666541 -0.06991507] [ 0.94186778 -0.01872746] [ 0.53146303  0.        ] [ 0.77397493 -0.17229029] [ 0.81128445  0.        ] [ 0.75532017  0.00686635] [ 0.60608207 -0.14669649] [ 0.73666541 -0.01872746] [ 0.4008797  -0.04432127] [ 0.82993921  0.00686635] [ 0.51280827 -0.09550888] [ 0.53146303  0.08364776] [ 0.49415351 -0.06991507] [ 0.4008797   0.13483537] [ 0.49415351 -0.2234779 ] [ 0.55011779  0.00686635] [ 0.55011779  0.        ] [ 0.28895113 -0.06991507] [ 0.53146303 -0.37704073] [ 0.36357017  0.08364776] [ 0.79262969  0.05805396] [ 0.1583678  -0.09550888] [ 0.53146303  0.00686635] [ 0.28895113 -0.09550888] [ 0.56877255 -0.01872746] [ 0.4008797   0.00686635] [ 0.38222494  0.        ] [ 0.38222494  0.13483537] [ 0.2516416  -0.17229029] [ 0.56877255  0.00686635] [ 0.32626065  0.10924157] [ 0.4008797   0.13483537] [ 0.2516416  -0.06991507] [ 0.34491541 -0.01872746] [ 0.47549874  0.        ] [ 0.47549874  0.05805396] [ 0.4008797   0.08364776] [ 0.1583678   0.08364776] [ 0.55011779  0.23721059] [ 0.8859035  0.2883982] [ 0.6433916   0.33958581] [ 0.69935588  0.39077342] [ 0.69935588  0.18602298] [ 0.34491541  0.05805396] [ 0.60608207 -0.06991507] [ 0.13971304 -0.2234779 ] [ 0.21433208  0.        ] [ 0.10240351 -0.06991507] [ 0.06509399 -0.2234779 ] [ 0.         -0.27466551] [ 0.23298684  0.05805396] [ 0.17702256  0.        ] [-0.06548934 -0.06991507] [-0.21472743  0.        ] [ 0.4008797  -0.04432127] [-0.10279886  0.00686635] [-0.04683458 -0.01872746] [ 0.10240351  0.08364776] [-0.04683458 -0.01872746] [ 0.06509399  0.10924157] [ 0.04643923  0.33958581] [ 0.21433208  0.49314864] [ 0.  0.] [ 0.  0.] [ 0.  0.] [ 0.  0.] [ 0.  0.] [ 0.  0.] [ 0.  0.] [ 0.  0.] [ 0.  0.] [ 0.  0.] [ 0.  0.] [ 0.  0.] [ 0.  0.] [ 0.  0.] [ 0.  0.] [ 0.  0.] [ 0.  0.] [ 0.  0.] [ 0.  0.] [ 0.  0.] [ 0.  0.] [ 0.  0.] [ 0.  0.] [ 0.  0.] [ 0.  0.] [ 0.  0.] [ 0.  0.] [ 0.  0.] [ 0.  0.] [ 0.  0.] [ 0.  0.] [ 0.  0.] [ 0.  0.]
[ 0.96052254 -0.06991507] [ 1.98653443 -1.7079186 ] [ 2.95658203 -2.78285842] [ 1.98653443 -1.15765179] [ 2.28501061  0.46755484] [ 1.09110587  0.7490867 ] [-0.10279886  1.87521412] [ 0.55011779  2.61743448] [ 0.82993921  3.84593713] [ 0.17702256  4.79290792] [ 0.17702256  3.94831235] [ 0.38222494  2.31030881] [-0.02817982  0.67230528] [-0.64378695 -0.09550888] [-0.60647743 -0.12110268] [-0.92360837 -0.24907171] [-0.718406   -0.27466551] [-0.86764409 -0.1978841 ] [-0.92360837 -0.24907171] [-1.22208456 -0.37704073] [-0.94226313 -0.30025932] [-1.14746551 -0.35144693] [-1.22208456 -0.37704073] [-1.35266789 -0.42822834] [-1.48325122 -0.50500976] [-1.4459417  -0.63297878] [-1.65114407 -0.76094781] [-1.5392155  -0.68416639] [-1.55787027 -0.81213542] [-1.48325122 -0.83772923] [-1.42728693 -1.04247967] [-1.22208456 -1.09366728] [-1.18477503 -0.99129206] [-0.58782266 -1.04247967] [-0.60647743 -1.09366728] [-0.53185838 -0.94010445] [-0.12145363 -0.88891684] [ 0.0091297  -0.68416639] [ 0.04643923 -0.58179117] [ 0.21433208 -0.50500976] [ 0.28895113 -0.37704073] [ 0.28895113 -0.24907171] [ 0.56877255 -0.04432127] [ 0.27029637 -0.04432127] [ 0.4008797  0.       ] [ 0.2516416  0.       ] [ 0.53146303  0.08364776] [ 0.08374875  0.16042918] [ 0.23298684  0.10924157] [ 0.19567732  0.        ] [ 0.21433208  0.05805396] [ 0.19567732  0.13483537] [ 0.13971304  0.05805396] [ 0.21433208  0.21161679] [ 0.21433208  0.08364776] [-0.06548934 -0.01872746] [ 0.4008797   0.21161679] [ 0.0091297   0.18602298] [ 0.23298684  0.13483537] [ 0.          0.10924157] [-0.06548934 -0.01872746] [ 0.13971304  0.13483537] [ 0.06509399  0.16042918] [-0.04683458  0.08364776] [-0.00952506  0.00686635] [-0.02817982  0.08364776] [ 0.08374875  0.        ] [ 0.04643923  0.05805396] [-0.12145363  0.05805396] [-0.10279886 -0.01872746] [-0.00952506  0.05805396] [ 0.04643923  0.08364776] [-0.0841441   0.08364776] [-0.00952506  0.05805396] [-0.14010839  0.13483537] [ 0.0091297  0.       ] [-0.14010839  0.        ] [ 0.0091297   0.05805396] [-0.06548934  0.10924157] [-0.12145363  0.        ] [ 0.          0.10924157] [-0.17741791  0.05805396] [ 0.06509399  0.00686635] [-0.10279886  0.16042918] [-0.04683458  0.08364776] [ 0.          0.10924157] [-0.10279886  0.16042918] [ 0.08374875 -0.09550888] [-0.10279886  0.08364776] [ 0.          0.23721059] [-0.04683458  0.10924157] [ 0.06509399  0.08364776] [-0.10279886  0.13483537] [ 0.0091297   0.10924157] [ 0.1583678  0.2883982] [ 0.43818922  0.51874245] [ 0.43818922  0.46755484] [ 0.43818922  0.39077342] [ 0.43818922  0.2883982 ] [ 0.51280827  0.10924157] [ 0.13971304 -0.04432127] [ 0.10240351  0.00686635] [-0.04683458 -0.09550888] [-0.0841441 -0.2234779] [-0.10279886 -0.09550888] [-0.17741791 -0.2234779 ] [ 0.04643923  0.05805396] [-0.04683458  0.00686635] [-0.14010839 -0.14669649] [-0.19607267 -0.17229029] [ 0.0091297  -0.04432127] [-0.19607267 -0.04432127] [-0.02817982 -0.06991507] [-0.06548934 -0.01872746] [ 0.06509399 -0.12110268] [ 0.0091297   0.16042918] [ 0.23298684  0.2628044 ] [ 0.  0.] [ 0.  0.] [ 0.  0.] [ 0.  0.] [ 0.  0.] [ 0.  0.] [ 0.  0.] [ 0.  0.] [ 0.  0.] [ 0.  0.] [ 0.  0.] [ 0.  0.] [ 0.  0.] [ 0.  0.] [ 0.  0.] [ 0.  0.] [ 0.  0.] [ 0.  0.] [ 0.  0.] [ 0.  0.] [ 0.  0.] [ 0.  0.] [ 0.  0.] [ 0.  0.] [ 0.  0.] [ 0.  0.] [ 0.  0.] [ 0.  0.] [ 0.  0.] [ 0.  0.] [ 0.  0.] [ 0.  0.] [ 0.  0.] [ 0.  0.] [ 0.  0.]
[ 0.06509399 -0.06991507] [ 1.10976064 -1.7079186 ] [ 2.294338   -2.88523364] [ 1.18437968 -1.26002701] [ 2.00518919  0.36517962] [ 0.81128445  0.54433625] [-0.38262029  1.72165129] [ 0.13971304  2.46387164] [ 0.23298684  3.41084244] [-0.10279886  4.38340703] [-0.02817982  3.82034332] [ 0.32626065  2.18233979] [-0.60647743  0.54433625] [-1.0541917  -0.04432127] [-1.0541917  -0.14669649] [-1.0541917  -0.17229029] [-1.09150123 -0.17229029] [-1.22208456 -0.1978841 ] [-1.33401313 -0.24907171] [-1.22208456 -0.2234779 ] [-1.22208456 -0.17229029] [-1.37132265 -0.30025932] [-1.37132265 -0.32585312] [-1.4459417  -0.32585312] [-1.59517979 -0.42822834] [-1.52056074 -0.42822834] [-1.70710836 -0.45382215] [-1.72576312 -0.63297878] [-1.70710836 -0.7097602 ] [-1.59517979 -0.65857259] [-1.6884536  -0.83772923] [-1.40863217 -0.88891684] [-1.35266789 -0.91451064] [-1.24073932 -1.04247967] [-0.83033457 -1.01688586] [-0.66244171 -0.86332303] [-0.4758941  -0.86332303] [-0.28934648 -0.83772923] [-0.12145363 -0.68416639] [ 0.17702256 -0.47941595] [ 0.13971304 -0.35144693] [ 0.21433208 -0.24907171] [ 0.2516416  -0.24907171] [ 0.43818922 -0.04432127] [ 0.28895113  0.08364776] [ 0.2516416   0.05805396] [ 0.23298684  0.10924157] [ 0.2516416   0.21161679] [ 0.17702256  0.13483537] [ 0.19567732  0.13483537] [ 0.13971304  0.16042918] [ 0.19567732  0.18602298] [ 0.13971304  0.13483537] [ 0.2516416   0.21161679] [ 0.13971304  0.16042918] [ 0.13971304  0.13483537] [ 0.17702256  0.21161679] [ 0.08374875  0.13483537] [ 0.08374875  0.16042918] [ 0.12105827  0.16042918] [ 0.06509399  0.08364776] [-0.00952506  0.05805396] [ 0.          0.16042918] [ 0.12105827  0.13483537] [-0.00952506  0.10924157] [-0.04683458  0.08364776] [ 0.10240351  0.        ] [ 0.0091297   0.08364776] [-0.0841441   0.23721059] [-0.02817982  0.10924157] [-0.0841441   0.00686635] [-0.00952506  0.13483537] [-0.10279886  0.        ] [-0.06548934  0.00686635] [-0.04683458  0.10924157] [-0.06548934  0.        ] [ 0.0091297  0.       ] [-0.04683458  0.        ] [-0.10279886  0.05805396] [ 0.10240351  0.        ] [-0.14010839  0.05805396] [ 0.0091297   0.08364776] [ 0.10240351  0.08364776] [-0.14010839  0.08364776] [ 0.08374875  0.00686635] [-0.02817982  0.05805396] [ 0.12105827  0.05805396] [ 0.23298684  0.08364776] [ 0.06509399  0.        ] [ 0.  0.] [ 0.10240351  0.05805396] [ 0.32626065  0.23721059] [ 0.45684398  0.33958581] [ 0.47549874  0.41636723] [ 0.60608207  0.39077342] [ 0.56877255  0.36517962] [ 0.55011779  0.13483537] [ 0.34491541 -0.09550888] [ 0.23298684 -0.04432127] [ 0.19567732 -0.04432127] [ 0.17702256 -0.01872746] [-0.02817982 -0.12110268] [ 0.         -0.17229029] [ 0.06509399  0.05805396] [ 0.08374875  0.00686635] [ 0.04643923  0.        ] [ 0.  0.] [ 0.21433208  0.10924157] [ 0.10240351 -0.04432127] [ 0.06509399  0.00686635] [-0.10279886  0.05805396] [ 0.27029637  0.05805396] [ 0.21433208  0.00686635] [ 0.1583678   0.49314864] [ 0.  0.] [ 0.  0.] [ 0.  0.] [ 0.  0.] [ 0.  0.] [ 0.  0.] [ 0.  0.] [ 0.  0.] [ 0.  0.] [ 0.  0.] [ 0.  0.] [ 0.  0.] [ 0.  0.] [ 0.  0.] [ 0.  0.] [ 0.  0.] [ 0.  0.] [ 0.  0.] [ 0.  0.] [ 0.  0.] [ 0.  0.] [ 0.  0.] [ 0.  0.] [ 0.  0.] [ 0.  0.] [ 0.  0.] [ 0.  0.] [ 0.  0.] [ 0.  0.] [ 0.  0.] [ 0.  0.] [ 0.  0.] [ 0.  0.] [ 0.  0.] [ 0.  0.] [ 0.  0.] [ 0.  0.] [ 0.  0.]
[ 1.1284154  -0.12110268] [ 1.94922491 -1.47757436] [ 3.13380226 -1.73351241] [ 2.24770109 -0.10830578] [ 1.18437968  0.10924157] [-0.00952506  0.97943094] [-1.07284647  2.05437076] [-0.10279886  2.82218492] [-0.43858457  3.89712474] [-0.36396553  4.2298442 ] [-0.34531076  2.79659111] [-0.38262029  1.15858758] [-0.38262029 -0.24907171] [-0.4758941  -0.37704073] [-0.8116798  -0.45382215] [-0.97957266 -0.47941595] [-0.66244171 -0.55619737] [-1.07284647 -0.45382215] [-1.01688218 -0.7097602 ] [-1.35266789 -0.60738498] [-1.33401313 -0.53060356] [-1.33401313 -0.76094781] [-1.5392155  -0.86332303] [-1.76307264 -0.86332303] [-1.66979884 -0.94010445] [-1.76307264 -1.2216363 ] [-1.96827502 -1.2216363 ] [-1.6884536  -1.42638675] [-1.6884536  -1.47757436] [-1.5392155  -1.45198055] [-1.31535837 -1.50316816] [-1.16612027 -1.60554338] [-0.75571552 -1.40079294] [-0.40127505 -1.29841772] [-0.30800124 -1.2216363 ] [ 0.0091297  -0.88891684] [ 0.21433208 -0.76094781] [ 0.30760589 -0.65857259] [ 0.32626065 -0.50500976] [ 0.32626065 -0.42822834] [ 0.27029637 -0.32585312] [ 0.32626065 -0.06991507] [ 0.32626065 -0.01872746] [ 0.27029637  0.00686635] [ 0.27029637  0.18602298] [ 0.          0.13483537] [ 0.13971304 -0.01872746] [-0.00952506  0.18602298] [ 0.12105827  0.10924157] [ 0.06509399  0.05805396] [ 0.          0.23721059] [ 0.27029637  0.23721059] [ 0.68070112  0.21161679] [ 0.62473684  0.31399201] [ 0.68070112  0.36517962] [ 0.58742731  0.49314864] [ 0.82993921  0.82586811] [ 1.01648683  0.72349289] [ 1.07245111  0.59552386] [ 1.25899873  0.46755484] [ 1.25899873  0.        ] [ 0.92321302  0.08364776] [ 0.73666541  0.05805396] [ 0.4008797   0.21161679] [ 0.47549874  0.05805396] [ 0.36357017  0.13483537] [ 0.41953446  0.10924157] [ 0.36357017  0.16042918] [ 0.12105827  0.16042918] [ 0.08374875  0.18602298] [ 0.          0.16042918] [ 0.13971304  0.18602298] [-0.04683458  0.        ] [-0.19607267  0.05805396] [-0.12145363  0.44196103] [ 0.  0.] [ 0.  0.] [ 0.  0.] [ 0.  0.] [ 0.  0.] [ 0.  0.] [ 0.  0.] [ 0.  0.] [ 0.  0.] [ 0.  0.] [ 0.  0.] [ 0.  0.] [ 0.  0.] [ 0.  0.] [ 0.  0.] [ 0.  0.] [ 0.  0.] [ 0.  0.] [ 0.  0.] [ 0.  0.] [ 0.  0.] [ 0.  0.] [ 0.  0.] [ 0.  0.] [ 0.  0.] [ 0.  0.] [ 0.  0.] [ 0.  0.] [ 0.  0.] [ 0.  0.] [ 0.  0.] [ 0.  0.] [ 0.  0.] [ 0.  0.] [ 0.  0.] [ 0.  0.] [ 0.  0.] [ 0.  0.] [ 0.  0.] [ 0.  0.] [ 0.  0.] [ 0.  0.] [ 0.  0.] [ 0.  0.] [ 0.  0.] [ 0.  0.] [ 0.  0.] [ 0.  0.] [ 0.  0.] [ 0.  0.] [ 0.  0.] [ 0.  0.] [ 0.  0.] [ 0.  0.] [ 0.  0.] [ 0.  0.] [ 0.  0.] [ 0.  0.] [ 0.  0.] [ 0.  0.] [ 0.  0.] [ 0.  0.] [ 0.  0.] [ 0.  0.] [ 0.  0.] [ 0.  0.] [ 0.  0.] [ 0.  0.] [ 0.  0.] [ 0.  0.] [ 0.  0.] [ 0.  0.] [ 0.  0.] [ 0.  0.] [ 0.  0.] [ 0.  0.] [ 0.  0.]
[-0.04683458  0.36517962] [ 0.49415351  0.00686635] [ 1.59478444 -1.27282391] [ 2.69541537 -1.86148143] [ 1.50151063 -0.2362748 ] [ 0.56877255  0.56993006] [-0.62513219  1.2609628 ] [-0.9609179   2.13115218] [-0.88629885  2.92456014] [-0.68109647  3.89712474] [-0.88629885  4.38340703] [-0.9609179   2.89896633] [-1.38997741  1.2609628 ] [-1.57652503 -0.06991507] [-1.70710836 -0.12110268] [-1.57652503 -0.12110268] [-1.85634645 -0.12110268] [-1.65114407 -0.35144693] [-1.7817274  -0.06991507] [-1.63248931 -0.35144693] [-1.98692978 -0.27466551] [-1.9309655  -0.45382215] [-2.08020359 -0.50500976] [-2.49060834 -0.55619737] [-2.36002501 -0.55619737] [-2.69581072 -0.76094781] [-2.62119167 -0.91451064] [-2.49060834 -0.86332303] [-2.78908453 -0.99129206] [-2.58388215 -1.01688586] [-2.1734774  -0.96569825] [-2.1734774  -1.42638675] [-2.19213216 -1.17044869] [-1.74441788 -1.27282391] [-1.35266789 -1.14485489] [-0.8116798  -0.99129206] [-0.88629885 -0.68416639] [-0.62513219 -0.81213542] [-0.02817982 -0.63297878] [-0.15876315 -0.37704073] [ 0.08374875 -0.37704073] [ 0.2516416  -0.14669649] [ 0.10240351 -0.04432127] [-0.04683458 -0.06991507] [ 0.19567732 -0.04432127] [ 0.2516416  0.2628044] [ 0.45684398  0.10924157] [ 0.23298684  0.23721059] [ 0.45684398  0.10924157] [ 0.27029637  0.10924157] [ 0.32626065  0.10924157] [ 0.45684398  0.2628044 ] [ 0.6433916   0.16042918] [ 0.34491541  0.23721059] [ 0.97917731  0.39077342] [ 0.94186778  0.56993006] [ 1.05379635  0.85146192] [ 1.24034397  0.51874245] [ 1.42689158  0.56993006] [ 1.20303444  0.31399201] [ 1.20303444 -0.06991507] [ 1.3709273  -0.17229029] [ 0.81128445 -0.09550888] [ 0.97917731 -0.12110268] [ 0.34491541 -0.32585312] [ 0.36357017 -0.2234779 ] [ 0.38222494 -0.35144693] [ 0.45684398 -0.27466551] [ 0.1583678  -0.01872746] [ 0.47549874 -0.14669649] [ 0.21433208 -0.32585312] [ 0.19567732 -0.04432127] [ 0.28895113 -0.1978841 ] [ 0.23298684 -0.2234779 ] [ 0.4008797   0.21161679] [ 0.  0.] [ 0.  0.] [ 0.  0.] [ 0.  0.] [ 0.  0.] [ 0.  0.] [ 0.  0.] [ 0.  0.] [ 0.  0.] [ 0.  0.] [ 0.  0.] [ 0.  0.] [ 0.  0.] [ 0.  0.] [ 0.  0.] [ 0.  0.] [ 0.  0.] [ 0.  0.] [ 0.  0.] [ 0.  0.] [ 0.  0.] [ 0.  0.] [ 0.  0.] [ 0.  0.] [ 0.  0.] [ 0.  0.] [ 0.  0.] [ 0.  0.] [ 0.  0.] [ 0.  0.] [ 0.  0.] [ 0.  0.] [ 0.  0.] [ 0.  0.] [ 0.  0.] [ 0.  0.] [ 0.  0.] [ 0.  0.] [ 0.  0.] [ 0.  0.] [ 0.  0.] [ 0.  0.] [ 0.  0.] [ 0.  0.] [ 0.  0.] [ 0.  0.] [ 0.  0.] [ 0.  0.] [ 0.  0.] [ 0.  0.] [ 0.  0.] [ 0.  0.] [ 0.  0.] [ 0.  0.] [ 0.  0.] [ 0.  0.] [ 0.  0.] [ 0.  0.] [ 0.  0.] [ 0.  0.] [ 0.  0.] [ 0.  0.] [ 0.  0.] [ 0.  0.] [ 0.  0.] [ 0.  0.] [ 0.  0.] [ 0.  0.] [ 0.  0.] [ 0.  0.] [ 0.  0.] [ 0.  0.] [ 0.  0.] [ 0.  0.] [ 0.  0.] [ 0.  0.] [ 0.  0.]
[ 0.81128445  0.23721059] [ 1.22168921 -0.01872746] [ 2.13577252 -1.42638675] [ 3.25505822 -1.57994958] [ 2.15442728  0.04525705] [ 1.25899873  0.18602298] [ 0.06509399  0.92824333] [-0.10279886  1.64486988] [ 0.12105827  2.51505925] [ 0.0091297   3.35965483] [ 0.06509399  3.89712474] [ 0.36357017  2.69421589] [-0.02817982  1.05621236] [-0.68109647 -0.04432127] [-0.73706076 -0.2234779 ] [-0.97957266 -0.1978841 ] [-0.8116798  -0.27466551] [-0.94226313 -0.32585312] [-0.97957266 -0.37704073] [-1.24073932 -0.47941595] [-1.35266789 -0.42822834] [-1.33401313 -0.60738498] [-1.35266789 -0.63297878] [-1.6884536  -0.76094781] [-1.70710836 -0.86332303] [-1.98692978 -1.04247967] [-2.06154883 -1.06807347] [-2.32271549 -1.27282391] [-2.15482264 -1.37519914] [-2.2667512  -1.47757436] [-1.9309655  -1.24723011] [-1.38997741 -1.40079294] [-1.42728693 -1.29841772] [-0.9609179  -1.40079294] [-0.68109647 -1.01688586] [-0.12145363 -0.96569825] [-0.00952506 -0.81213542] [ 0.56877255 -0.55619737] [ 0.66204636 -0.35144693] [ 0.86724874 -0.30025932] [ 0.73666541  0.05805396] [ 1.22168921  0.        ] [ 1.07245111  0.10924157] [ 0.99783207  0.31399201] [ 0.79262969  0.56993006] [ 0.94186778  0.46755484] [ 0.99783207  0.51874245] [ 0.75532017  0.62111767] [ 0.71801064  0.62111767] [ 0.73666541  0.62111767] [ 0.82993921  0.67230528] [ 0.6433916   0.62111767] [ 0.66204636  0.67230528] [ 0.6433916   0.85146192] [ 0.99783207  0.92824333] [ 0.96052254  1.18418138] [ 1.09110587  1.13299377] [ 1.29630825  0.7746805 ] [ 1.16572492  0.59552386] [ 1.3709273  0.2883982] [ 1.33361778  0.05805396] [ 1.20303444  0.08364776] [ 1.24034397 -0.91451064] [ 0.97917731 -1.96385665] [ 0.99783207 -2.62929559] [ 0.58742731 -2.34776373] [-0.60647743 -3.98576727] [ 0.  0.] [ 0.  0.] [ 0.  0.] [ 0.  0.] [ 0.  0.] [ 0.  0.] [ 0.  0.] [ 0.  0.] [ 0.  0.] [ 0.  0.] [ 0.  0.] [ 0.  0.] [ 0.  0.] [ 0.  0.] [ 0.  0.] [ 0.  0.] [ 0.  0.] [ 0.  0.] [ 0.  0.] [ 0.  0.] [ 0.  0.] [ 0.  0.] [ 0.  0.] [ 0.  0.] [ 0.  0.] [ 0.  0.] [ 0.  0.] [ 0.  0.] [ 0.  0.] [ 0.  0.] [ 0.  0.] [ 0.  0.] [ 0.  0.] [ 0.  0.] [ 0.  0.] [ 0.  0.] [ 0.  0.] [ 0.  0.] [ 0.  0.] [ 0.  0.] [ 0.  0.] [ 0.  0.] [ 0.  0.] [ 0.  0.] [ 0.  0.] [ 0.  0.] [ 0.  0.] [ 0.  0.] [ 0.  0.] [ 0.  0.] [ 0.  0.] [ 0.  0.] [ 0.  0.] [ 0.  0.] [ 0.  0.] [ 0.  0.] [ 0.  0.] [ 0.  0.] [ 0.  0.] [ 0.  0.] [ 0.  0.] [ 0.  0.] [ 0.  0.] [ 0.  0.] [ 0.  0.] [ 0.  0.] [ 0.  0.] [ 0.  0.] [ 0.  0.] [ 0.  0.] [ 0.  0.] [ 0.  0.] [ 0.  0.] [ 0.  0.] [ 0.  0.] [ 0.  0.] [ 0.  0.] [ 0.  0.] [ 0.  0.] [ 0.  0.] [ 0.  0.] [ 0.  0.] [ 0.  0.] [ 0.  0.] [ 0.  0.]
[ 1.29630825  0.59552386] [ 1.70671301  0.36517962] [ 2.52752251 -0.99129206] [ 3.64680821 -1.34960533] [ 2.45290347  0.2756013 ] [ 1.52016539  0.56993006] [ 0.32626065  1.38893183] [-0.04683458  2.07996457] [-0.00952506  2.95015394] [ 0.13971304  3.92271854] [ 0.06509399  4.2042504 ] [-0.02817982  2.56624687] [-0.34531076  0.92824333] [-0.58782266 -0.01872746] [-0.90495361 -0.14669649] [-0.99822742 -0.24907171] [-1.18477503 -0.2234779 ] [-0.97957266 -0.1978841 ] [-1.03553694 -0.2234779 ] [-0.90495361 -0.32585312] [-1.18477503 -0.37704073] [-1.2967036  -0.45382215] [-1.35266789 -0.65857259] [-1.42728693 -0.78654162] [-1.35266789 -1.04247967] [-1.83769169 -1.1960425 ] [-1.50190598 -0.96569825] [-1.48325122 -1.45198055] [-1.85634645 -1.42638675] [-1.31535837 -1.6823248 ] [-1.25939408 -1.57994958] [-0.97957266 -1.65673099] [-0.58782266 -1.55435577] [-0.60647743 -1.37519914] [ 0.         -1.04247967] [ 0.19567732 -1.14485489] [ 0.0091297  -0.81213542] [ 0.23298684 -0.53060356] [ 0.73666541 -0.27466551] [ 0.69935588 -0.1978841 ] [ 0.51280827 -0.01872746] [ 0.60608207  0.16042918] [ 0.53146303  0.18602298] [ 0.55011779  0.23721059] [ 0.49415351  0.23721059] [ 0.53146303  0.31399201] [ 0.06509399  0.36517962] [ 0.27029637  0.41636723] [ 0.36357017  0.41636723] [ 0.38222494  0.49314864] [ 0.32626065  0.7490867 ] [ 0.73666541  0.97943094] [ 0.51280827  1.23536899] [ 0.94186778  1.20977519] [ 1.25899873  1.13299377] [ 1.50151063  0.7490867 ] [ 1.31496301  0.72349289] [ 1.35227254  0.62111767] [ 1.09110587  0.54433625] [ 0.75532017  0.59552386] [ 0.84859397  0.23721059] [ 0.68070112  0.54433625] [ 0.97917731  0.31399201] [ 0.56877255  0.44196103] [ 0.68070112  0.23721059] [ 0.47549874  0.2628044 ] [ 0.41953446  0.13483537] [ 0.4008797   0.18602298] [ 0.04643923  0.13483537] [ 0.27029637  0.08364776] [ 0.34491541  0.44196103] [ 0.  0.] [ 0.  0.] [ 0.  0.] [ 0.  0.] [ 0.  0.] [ 0.  0.] [ 0.  0.] [ 0.  0.] [ 0.  0.] [ 0.  0.] [ 0.  0.] [ 0.  0.] [ 0.  0.] [ 0.  0.] [ 0.  0.] [ 0.  0.] [ 0.  0.] [ 0.  0.] [ 0.  0.] [ 0.  0.] [ 0.  0.] [ 0.  0.] [ 0.  0.] [ 0.  0.] [ 0.  0.] [ 0.  0.] [ 0.  0.] [ 0.  0.] [ 0.  0.] [ 0.  0.] [ 0.  0.] [ 0.  0.] [ 0.  0.] [ 0.  0.] [ 0.  0.] [ 0.  0.] [ 0.  0.] [ 0.  0.] [ 0.  0.] [ 0.  0.] [ 0.  0.] [ 0.  0.] [ 0.  0.] [ 0.  0.] [ 0.  0.] [ 0.  0.] [ 0.  0.] [ 0.  0.] [ 0.  0.] [ 0.  0.] [ 0.  0.] [ 0.  0.] [ 0.  0.] [ 0.  0.] [ 0.  0.] [ 0.  0.] [ 0.  0.] [ 0.  0.] [ 0.  0.] [ 0.  0.] [ 0.  0.] [ 0.  0.] [ 0.  0.] [ 0.  0.] [ 0.  0.] [ 0.  0.] [ 0.  0.] [ 0.  0.] [ 0.  0.] [ 0.  0.] [ 0.  0.] [ 0.  0.] [ 0.  0.] [ 0.  0.] [ 0.  0.] [ 0.  0.] [ 0.  0.] [ 0.  0.] [ 0.  0.] [ 0.  0.] [ 0.  0.]
[ 0.8859035  0.2883982] [ 1.91191538 -0.58179117] [ 3.09649274 -1.50316816] [ 3.36698678  0.12203847] [ 3.0685106   0.80027431] [ 1.87460586  0.69789909] [ 0.68070112  1.67046368] [ 0.12105827  2.54065306] [ 0.41953446  3.07812297] [-0.45723933  4.17865659] [ 0.27029637  3.25727961] [-0.02817982  1.61927607] [-0.40127505 -0.01872746] [-0.90495361 -0.32585312] [-0.90495361 -0.42822834] [-1.01688218 -0.50500976] [-1.09150123 -0.58179117] [-0.9609179  -0.50500976] [-1.52056074 -0.60738498] [-1.72576312 -0.83772923] [-1.40863217 -0.76094781] [-2.22944168 -0.63297878] [-2.0242393  -0.83772923] [-2.30406073 -1.11926108] [-2.69581072 -1.09366728] [-2.77042977 -1.2216363 ] [-2.49060834 -1.34960533] [-2.43464406 -1.37519914] [-2.24809644 -1.50316816] [-2.0242393  -1.37519914] [-1.50190598 -1.42638675] [-0.86764409 -1.45198055] [-0.77437028 -1.32401152] [-0.38262029 -0.96569825] [ 0.28895113 -0.99129206] [ 0.10240351 -0.60738498] [ 0.69935588 -0.40263454] [ 0.58742731 -0.42822834] [ 0.56877255 -0.27466551] [ 0.58742731 -0.12110268] [ 0.69935588  0.00686635] [ 0.71801064  0.13483537] [ 0.55011779  0.18602298] [ 0.47549874  0.21161679] [ 0.56877255  0.31399201] [ 0.60608207  0.44196103] [ 0.60608207  0.31399201] [ 0.55011779  0.41636723] [ 0.60608207  0.49314864] [ 0.60608207  0.7490867 ] [ 0.92321302  0.90264953] [ 0.96052254  0.87705572] [ 1.33361778  0.85146192] [ 1.55747491  0.44196103] [ 1.52016539  0.18602298] [ 1.20303444  0.08364776] [ 1.01648683  0.18602298] [ 1.05379635  0.13483537] [ 0.92321302  0.23721059] [ 1.16572492  0.18602298] [ 0.79262969  0.18602298] [ 0.81128445  0.21161679] [ 0.56877255  0.21161679] [ 0.73666541  0.21161679] [ 0.4008797  0.2628044] [ 0.62473684  0.31399201] [ 0.51280827  0.33958581] [ 0.51280827  0.21161679] [ 0.41953446  0.64671148] [ 0.  0.] [ 0.  0.] [ 0.  0.] [ 0.  0.] [ 0.  0.] [ 0.  0.] [ 0.  0.] [ 0.  0.] [ 0.  0.] [ 0.  0.] [ 0.  0.] [ 0.  0.] [ 0.  0.] [ 0.  0.] [ 0.  0.] [ 0.  0.] [ 0.  0.] [ 0.  0.] [ 0.  0.] [ 0.  0.] [ 0.  0.] [ 0.  0.] [ 0.  0.] [ 0.  0.] [ 0.  0.] [ 0.  0.] [ 0.  0.] [ 0.  0.] [ 0.  0.] [ 0.  0.] [ 0.  0.] [ 0.  0.] [ 0.  0.] [ 0.  0.] [ 0.  0.] [ 0.  0.] [ 0.  0.] [ 0.  0.] [ 0.  0.] [ 0.  0.] [ 0.  0.] [ 0.  0.] [ 0.  0.] [ 0.  0.] [ 0.  0.] [ 0.  0.] [ 0.  0.] [ 0.  0.] [ 0.  0.] [ 0.  0.] [ 0.  0.] [ 0.  0.] [ 0.  0.] [ 0.  0.] [ 0.  0.] [ 0.  0.] [ 0.  0.] [ 0.  0.] [ 0.  0.] [ 0.  0.] [ 0.  0.] [ 0.  0.] [ 0.  0.] [ 0.  0.] [ 0.  0.] [ 0.  0.] [ 0.  0.] [ 0.  0.] [ 0.  0.] [ 0.  0.] [ 0.  0.] [ 0.  0.] [ 0.  0.] [ 0.  0.] [ 0.  0.] [ 0.  0.] [ 0.  0.] [ 0.  0.] [ 0.  0.] [ 0.  0.] [ 0.  0.] [ 0.  0.] [ 0.  0.]
[-0.49454886  2.54065306] [-0.83033457  3.53881146] [-0.79302504  4.43459464] [-0.83033457  3.48762385] [-0.49454886  1.84962032] [-0.53185838  0.21161679] [-1.0541917  -0.09550888] [-1.2967036  -0.09550888] [-0.99822742 -0.14669649] [-1.12881075 -0.14669649] [-1.42728693 -0.1978841 ] [-1.11015599 -0.27466551] [-1.65114407 -0.32585312] [-1.9309655 -0.2234779] [-1.5392155  -0.37704073] [-2.11751311 -0.40263454] [-2.37867977 -0.53060356] [-2.36002501 -0.81213542] [-2.6585012  -0.88891684] [-2.19213216 -1.2216363 ] [-2.78908453 -1.34960533] [-2.34137025 -1.27282391] [-1.96827502 -1.57994958] [-1.98692978 -1.52876197] [-1.4459417 -1.1960425] [-0.90495361 -1.32401152] [-0.55051314 -1.1960425 ] [ 0.13971304 -0.86332303] [ 0.21433208 -0.76094781] [ 0.19567732 -0.55619737] [ 0.77397493 -0.40263454] [ 0.41953446 -0.30025932] [ 0.60608207 -0.2234779 ] [ 0.75532017  0.16042918] [ 0.75532017  0.13483537] [ 0.62473684  0.2628044 ] [ 0.58742731  0.39077342] [ 0.77397493  0.21161679] [ 0.41953446  0.31399201] [ 0.60608207  0.2883982 ] [ 0.69935588  0.49314864] [ 0.56877255  0.44196103] [ 0.56877255  0.36517962] [ 0.69935588  0.41636723] [ 0.68070112  0.46755484] [ 0.84859397  0.62111767] [ 0.86724874  0.7746805 ] [ 1.07245111  1.00502475] [ 1.25899873  1.20977519] [ 1.35227254  1.13299377] [ 1.48285587  0.87705572] [ 1.6134392   0.59552386] [ 1.50151063  0.69789909] [ 1.31496301  0.59552386] [ 0.97917731  0.49314864] [ 0.79262969  0.46755484] [ 0.68070112  0.46755484] [ 0.86724874  0.59552386] [ 0.82993921  0.51874245] [ 0.53146303  0.51874245] [ 0.08374875  0.44196103] [ 0.49415351  0.54433625] [ 0.38222494  0.56993006] [ 0.58742731  0.33958581] [ 0.19567732  0.44196103] [ 0.27029637  0.51874245] [ 0.4008797   0.92824333] [ 0.55011779  0.67230528] [ 1.22168921  0.23721059] [ 1.98653443 -0.94010445] [ 3.17111179 -1.14485489] [ 2.21039157  0.48035174] [ 1.03514159  0.82586811] [-0.15876315  1.82402651] [-0.73706076  2.54065306] [ 0.  0.] [ 0.  0.] [ 0.  0.] [ 0.  0.] [ 0.  0.] [ 0.  0.] [ 0.  0.] [ 0.  0.] [ 0.  0.] [ 0.  0.] [ 0.  0.] [ 0.  0.] [ 0.  0.] [ 0.  0.] [ 0.  0.] [ 0.  0.] [ 0.  0.] [ 0.  0.] [ 0.  0.] [ 0.  0.] [ 0.  0.] [ 0.  0.] [ 0.  0.] [ 0.  0.] [ 0.  0.] [ 0.  0.] [ 0.  0.] [ 0.  0.] [ 0.  0.] [ 0.  0.] [ 0.  0.] [ 0.  0.] [ 0.  0.] [ 0.  0.] [ 0.  0.] [ 0.  0.] [ 0.  0.] [ 0.  0.] [ 0.  0.] [ 0.  0.] [ 0.  0.] [ 0.  0.] [ 0.  0.] [ 0.  0.] [ 0.  0.] [ 0.  0.] [ 0.  0.] [ 0.  0.] [ 0.  0.] [ 0.  0.] [ 0.  0.] [ 0.  0.] [ 0.  0.] [ 0.  0.] [ 0.  0.] [ 0.  0.] [ 0.  0.] [ 0.  0.] [ 0.  0.] [ 0.  0.] [ 0.  0.] [ 0.  0.] [ 0.  0.] [ 0.  0.] [ 0.  0.] [ 0.  0.] [ 0.  0.] [ 0.  0.] [ 0.  0.] [ 0.  0.] [ 0.  0.] [ 0.  0.] [ 0.  0.] [ 0.  0.] [ 0.  0.] [ 0.  0.] [ 0.  0.]
[ 1.07245111  0.16042918] [ 2.11711776 -1.06807347] [ 3.19909393 -1.2216363 ] [ 2.07980824  0.40357033] [ 0.8859035   0.39077342] [-0.30800124  1.13299377] [-0.06548934  1.84962032] [ 0.2516416   2.54065306] [-0.12145363  3.30846722] [ 0.0091297   3.46203005] [ 0.23298684  1.95199554] [-0.27069172  0.31399201] [-0.9609179  -0.17229029] [-1.18477503 -0.30025932] [-1.33401313 -0.45382215] [-1.42728693 -0.53060356] [-1.63248931 -0.53060356] [-1.65114407 -0.65857259] [-1.96827502 -0.58179117] [-1.63248931 -0.78654162] [-2.37867977 -0.78654162] [-2.45329882 -0.76094781] [-2.6585012  -0.86332303] [-2.91966786 -1.01688586] [-3.18083452 -1.17044869] [-3.34872737 -1.2216363 ] [-3.51662023 -1.40079294] [-3.3860369  -1.34960533] [-3.27410833 -1.55435577] [-3.18083452 -1.52876197] [-2.71446548 -1.42638675] [-2.45329882 -1.42638675] [-2.13616787 -1.29841772] [-1.66979884 -0.94010445] [-0.9609179  -0.88891684] [-0.718406  -0.7097602] [-0.41992981 -0.47941595] [-0.34531076 -0.27466551] [ 0.         -0.14669649] [ 0.1583678  0.       ] [ 0.28895113  0.18602298] [ 0.45684398  0.2628044 ] [ 0.32626065  0.23721059] [ 0.43818922  0.33958581] [ 0.17702256  0.44196103] [ 0.34491541  0.31399201] [ 0.06509399  0.54433625] [ 0.28895113  0.44196103] [ 0.13971304  0.44196103] [ 0.38222494  0.49314864] [-0.04683458  0.59552386] [ 0.45684398  0.41636723] [ 0.28895113  0.80027431] [ 0.66204636  0.7746805 ] [ 0.69935588  1.03061855] [ 1.22168921  0.72349289] [ 1.18437968  0.64671148] [ 1.33361778  0.16042918] [ 1.22168921  0.23721059] [ 1.07245111  0.21161679] [ 0.90455826  0.23721059] [ 0.77397493  0.18602298] [ 0.66204636  0.16042918] [ 0.68070112  0.23721059] [ 0.86724874  0.36517962] [ 0.60608207  0.33958581] [ 0.62473684  0.2883982 ] [ 0.56877255  0.41636723] [ 0.79262969  0.2628044 ] [ 0.49415351  0.2883982 ] [ 0.49415351  0.23721059] [ 0.34491541  0.21161679] [ 0.71801064  0.51874245] [ 0.  0.] [ 0.  0.] [ 0.  0.] [ 0.  0.] [ 0.  0.] [ 0.  0.] [ 0.  0.] [ 0.  0.] [ 0.  0.] [ 0.  0.] [ 0.  0.] [ 0.  0.] [ 0.  0.] [ 0.  0.] [ 0.  0.] [ 0.  0.] [ 0.  0.] [ 0.  0.] [ 0.  0.] [ 0.  0.] [ 0.  0.] [ 0.  0.] [ 0.  0.] [ 0.  0.] [ 0.  0.] [ 0.  0.] [ 0.  0.] [ 0.  0.] [ 0.  0.] [ 0.  0.] [ 0.  0.] [ 0.  0.] [ 0.  0.] [ 0.  0.] [ 0.  0.] [ 0.  0.] [ 0.  0.] [ 0.  0.] [ 0.  0.] [ 0.  0.] [ 0.  0.] [ 0.  0.] [ 0.  0.] [ 0.  0.] [ 0.  0.] [ 0.  0.] [ 0.  0.] [ 0.  0.] [ 0.  0.] [ 0.  0.] [ 0.  0.] [ 0.  0.] [ 0.  0.] [ 0.  0.] [ 0.  0.] [ 0.  0.] [ 0.  0.] [ 0.  0.] [ 0.  0.] [ 0.  0.] [ 0.  0.] [ 0.  0.] [ 0.  0.] [ 0.  0.] [ 0.  0.] [ 0.  0.] [ 0.  0.] [ 0.  0.] [ 0.  0.] [ 0.  0.] [ 0.  0.] [ 0.  0.] [ 0.  0.] [ 0.  0.] [ 0.  0.] [ 0.  0.] [ 0.  0.] [ 0.  0.] [ 0.  0.]
[ 2.21039157 -1.75910621] [ 3.14312965 -1.50316816] [ 2.30366538  0.12203847] [ 1.10976064 -0.12110268] [-0.0841441   0.62111767] [-0.326656    1.28655661] [-0.04683458  2.15674598] [-0.60647743  3.10371677] [-0.28934648  3.206092  ] [-0.30800124  1.7728389 ] [-0.5691679   0.13483537] [-1.27804884 -0.53060356] [-1.31535837 -0.53060356] [-1.31535837 -0.68416639] [-1.5392155  -0.65857259] [-1.31535837 -0.65857259] [-1.55787027 -0.65857259] [-1.61383455 -0.78654162] [-1.65114407 -0.76094781] [-2.04289407 -0.76094781] [-2.21078692 -0.86332303] [-2.1734774  -0.86332303] [-2.32271549 -0.99129206] [-2.52791787 -1.04247967] [-2.52791787 -1.1960425 ] [-2.6585012  -1.40079294] [-2.52791787 -1.45198055] [-2.34137025 -1.52876197] [-2.13616787 -1.57994958] [-1.80038217 -1.60554338] [-1.46459646 -1.47757436] [-1.03553694 -1.32401152] [-0.51320362 -1.1960425 ] [-0.21472743 -1.04247967] [ 0.19567732 -0.76094781] [ 0.49415351 -0.78654162] [ 0.32626065 -0.42822834] [ 0.6433916  -0.35144693] [ 0.79262969 -0.27466551] [ 0.81128445 -0.14669649] [ 0.79262969 -0.14669649] [ 0.68070112 -0.06991507] [ 0.77397493  0.08364776] [ 0.62473684  0.        ] [ 0.81128445  0.        ] [ 0.60608207  0.21161679] [ 0.68070112  0.21161679] [ 0.75532017  0.23721059] [ 0.62473684  0.2628044 ] [ 0.66204636  0.2628044 ] [ 0.79262969  0.2628044 ] [ 0.90455826  0.2628044 ] [ 0.8859035   0.18602298] [ 1.03514159  0.2883982 ] [ 1.22168921  0.62111767] [ 1.48285587  0.62111767] [ 1.48285587  0.51874245] [ 1.70671301  0.44196103] [ 1.83729634  0.13483537] [ 1.53882015 -0.04432127] [ 1.68805824 -0.01872746] [ 1.46420111 -0.1978841 ] [ 1.42689158 -0.58179117] [ 1.3709273  -2.01504427] [ 1.35227254 -3.03879647] [ 1.48285587 -2.93642125] [ 0.28895113 -3.80661063] [ 0.  0.] [ 0.  0.] [ 0.  0.] [ 0.  0.] [ 0.  0.] [ 0.  0.] [ 0.  0.] [ 0.  0.] [ 0.  0.] [ 0.  0.] [ 0.  0.] [ 0.  0.] [ 0.  0.] [ 0.  0.] [ 0.  0.] [ 0.  0.] [ 0.  0.] [ 0.  0.] [ 0.  0.] [ 0.  0.] [ 0.  0.] [ 0.  0.] [ 0.  0.] [ 0.  0.] [ 0.  0.] [ 0.  0.] [ 0.  0.] [ 0.  0.] [ 0.  0.] [ 0.  0.] [ 0.  0.] [ 0.  0.] [ 0.  0.] [ 0.  0.] [ 0.  0.] [ 0.  0.] [ 0.  0.] [ 0.  0.] [ 0.  0.] [ 0.  0.] [ 0.  0.] [ 0.  0.] [ 0.  0.] [ 0.  0.] [ 0.  0.] [ 0.  0.] [ 0.  0.] [ 0.  0.] [ 0.  0.] [ 0.  0.] [ 0.  0.] [ 0.  0.] [ 0.  0.] [ 0.  0.] [ 0.  0.] [ 0.  0.] [ 0.  0.] [ 0.  0.] [ 0.  0.] [ 0.  0.] [ 0.  0.] [ 0.  0.] [ 0.  0.] [ 0.  0.] [ 0.  0.] [ 0.  0.] [ 0.  0.] [ 0.  0.] [ 0.  0.] [ 0.  0.] [ 0.  0.] [ 0.  0.] [ 0.  0.] [ 0.  0.] [ 0.  0.] [ 0.  0.] [ 0.  0.] [ 0.  0.] [ 0.  0.] [ 0.  0.] [ 0.  0.] [ 0.  0.] [ 0.  0.] [ 0.  0.] [ 0.  0.]
[ 0.97917731 -0.1978841 ] [ 2.16375466 -1.83588763] [ 2.73272489 -1.73351241] [ 2.11711776 -0.10830578] [ 0.92321302  0.56993006] [-0.27069172  1.64486988] [-0.02817982  2.2591212 ] [ 0.66204636  2.84777872] [ 0.4008797   4.12746898] [ 0.8859035  4.2042504] [ 0.56877255  2.56624687] [ 0.27029637  0.92824333] [-0.92360837 -0.14669649] [-1.27804884 -0.09550888] [-1.61383455 -0.17229029] [-1.42728693 -0.14669649] [-1.33401313 -0.24907171] [-1.80038217 -0.17229029] [-2.0242393  -0.12110268] [-2.00558454 -0.42822834] [-2.2667512   0.00686635] [-2.45329882 -0.27466551] [-2.52791787 -0.45382215] [-2.63984644 -0.27466551] [-3.143525   -0.55619737] [-3.31141785 -0.58179117] [-3.3860369  -0.68416639] [-3.44200118 -0.86332303] [-3.29276309 -0.99129206] [-3.05025119 -0.96569825] [-2.88235834 -0.96569825] [-2.5092631  -1.04247967] [-1.9309655  -0.83772923] [-1.57652503 -0.68416639] [-0.79302504 -0.63297878] [-0.64378695 -0.40263454] [-0.06548934 -0.1978841 ] [ 0.32626065 -0.17229029] [ 0.38222494  0.00686635] [ 0.6433916   0.13483537] [ 0.71801064  0.08364776] [ 0.69935588  0.23721059] [ 0.60608207  0.2628044 ] [ 0.73666541  0.2883982 ] [ 0.75532017  0.2883982 ] [ 0.73666541  0.39077342] [ 0.60608207  0.21161679] [ 0.58742731  0.39077342] [ 0.75532017  0.2883982 ] [ 0.73666541  0.36517962] [ 0.66204636  0.41636723] [ 0.79262969  0.23721059] [ 0.51280827  0.2628044 ] [ 0.77397493  0.33958581] [ 0.55011779  0.21161679] [ 0.60608207  0.16042918] [ 0.45684398  0.31399201] [ 0.60608207  0.16042918] [ 0.51280827  0.16042918] [ 0.71801064  0.05805396] [ 0.53146303  0.44196103] [ 0.71801064  0.31399201] [ 0.55011779  0.67230528] [ 0.86724874  0.51874245] [ 1.01648683  0.46755484] [ 1.01648683  0.39077342] [ 0.8859035   0.00686635] [ 0.71801064  0.13483537] [ 0.51280827 -0.06991507] [ 0.17702256 -0.09550888] [ 0.21433208 -0.09550888] [ 0.10240351 -0.01872746] [ 0.51280827 -0.12110268] [ 0.06509399  0.00686635] [ 0.10240351 -0.09550888] [-0.02817982 -0.04432127] [ 0.30760589 -0.01872746] [ 0.27029637  0.13483537] [ 0.10240351  0.00686635] [ 0.17702256  0.00686635] [ 0.27029637  0.10924157] [ 0.34491541  0.54433625] [ 0.82993921 -0.01872746] [ 0.  0.] [ 0.  0.] [ 0.  0.] [ 0.  0.] [ 0.  0.] [ 0.  0.] [ 0.  0.] [ 0.  0.] [ 0.  0.] [ 0.  0.] [ 0.  0.] [ 0.  0.] [ 0.  0.] [ 0.  0.] [ 0.  0.] [ 0.  0.] [ 0.  0.] [ 0.  0.] [ 0.  0.] [ 0.  0.] [ 0.  0.] [ 0.  0.] [ 0.  0.] [ 0.  0.] [ 0.  0.] [ 0.  0.] [ 0.  0.] [ 0.  0.] [ 0.  0.] [ 0.  0.] [ 0.  0.] [ 0.  0.] [ 0.  0.] [ 0.  0.] [ 0.  0.] [ 0.  0.] [ 0.  0.] [ 0.  0.] [ 0.  0.] [ 0.  0.] [ 0.  0.] [ 0.  0.] [ 0.  0.] [ 0.  0.] [ 0.  0.] [ 0.  0.] [ 0.  0.] [ 0.  0.] [ 0.  0.] [ 0.  0.] [ 0.  0.] [ 0.  0.] [ 0.  0.] [ 0.  0.] [ 0.  0.] [ 0.  0.] [ 0.  0.] [ 0.  0.] [ 0.  0.] [ 0.  0.] [ 0.  0.] [ 0.  0.] [ 0.  0.] [ 0.  0.] [ 0.  0.] [ 0.  0.] [ 0.  0.] [ 0.  0.] [ 0.  0.]
