[-1.15117325  0.79740382] [-2.32583115 -0.17254623] [-1.3714216  -0.14702123] [-1.51825384 -0.17254623] [-1.5549619  -0.22359624] [-1.59166996 -0.35122124] [-1.68344011 -0.22359624] [-1.7385022  -0.14702123] [-1.66508608 -0.14702123] [-1.81191832 -0.19807123] [-1.86698041 -0.12149623] [-1.88533444 -0.12149623] [-2.05052071 -0.22359624] [-2.234061   -0.22359624] [-2.27076906 -0.30017124] [-2.43595533 -0.47884625] [-2.67455772 -0.35122124] [-2.54607951 -0.52989625] [-2.67455772 -0.58094625] [-2.56443354 -0.50437125] [-2.36253921 -0.52989625] [-2.01381265 -0.45332125] [-1.84862638 -0.32569624] [-1.27965145 -0.30017124] [-0.78409265 -0.14702123] [-0.63726041 -0.04492123] [-0.32524191  0.00612878] [-0.25182579  0.15927878] [-0.03157743  0.15927878] [ 0.09690078  0.3890038 ] [ 0.24373302  0.28690379] [-0.04993146  0.3890038 ] [ 0.00513063  0.31242879] [-0.04993146  0.26137879] [-0.03157743  0.3890038 ] [-0.06828549  0.5166288 ] [ 0.02348466  0.3890038 ] [-0.39865803  0.64425381] [-0.06828549  0.59320381] [-0.27017982  0.59320381] [-0.23347176  0.84845382] [ 0.26208705  0.4400538 ] [ 0.33550317  0.26137879] [ 0.42727331  0.21032879] [ 0.20702496  0.21032879] [-0.12334758  0.00612878] [-0.08663952  0.13375378] [-0.14170161  0.15927878] [ 0.20702496  0.18480379] [ 0.06019272  0.21032879] [ 0.04183869  0.5421538 ] [ 0.  0.] [ 0.  0.] [ 0.  0.] [ 0.  0.] [ 0.  0.] [ 0.  0.] [ 0.  0.] [ 0.  0.] [ 0.  0.] [ 0.  0.] [ 0.  0.] [ 0.  0.] [ 0.  0.] [ 0.  0.] [ 0.  0.] [ 0.  0.] [ 0.  0.] [ 0.  0.] [ 0.  0.] [ 0.  0.] [ 0.  0.] [ 0.  0.] [ 0.  0.] [ 0.  0.] [ 0.  0.] [ 0.  0.] [ 0.  0.] [ 0.  0.] [ 0.  0.] [ 0.  0.] [ 0.  0.] [ 0.  0.] [ 0.  0.] [ 0.  0.] [ 0.  0.] [ 0.  0.] [ 0.  0.] [ 0.  0.] [ 0.  0.] [ 0.  0.] [ 0.  0.] [ 0.  0.] [ 0.  0.] [ 0.  0.] [ 0.  0.] [ 0.  0.] [ 0.  0.] [ 0.  0.] [ 0.  0.] [ 0.  0.] [ 0.  0.] [ 0.  0.] [ 0.  0.] [ 0.  0.] [ 0.  0.] [ 0.  0.] [ 0.  0.] [ 0.  0.] [ 0.  0.] [ 0.  0.] [ 0.  0.] [ 0.  0.] [ 0.  0.] [ 0.  0.] [ 0.  0.] [ 0.  0.] [ 0.  0.] [ 0.  0.] [ 0.  0.] [ 0.  0.] [ 0.  0.] [ 0.  0.] [ 0.  0.] [ 0.  0.] [ 0.  0.] [ 0.  0.] [ 0.  0.] [ 0.  0.] [ 0.  0.] [ 0.  0.] [ 0.  0.] [ 0.  0.] [ 0.  0.] [ 0.  0.] [ 0.  0.] [ 0.  0.] [ 0.  0.] [ 0.  0.] [ 0.  0.] [ 0.  0.] [ 0.  0.] [ 0.  0.] [ 0.  0.] [ 0.  0.] [ 0.  0.] [ 0.  0.] [ 0.  0.] [ 0.  0.] [ 0.  0.] [ 0.  0.] [ 0.  0.]
[ 0.77599988  0.4145288 ] [ 0.64752167  0.13375378] [ 1.80382555 -1.21907129] [ 2.96930644 -1.90824632] [ 2.07913599 -0.28740874] [ 1.40003689  0.5421538 ] [ 0.22537899  1.12922883] [-0.83915474  2.07365388] [-0.21511773  2.89045392] [-0.14170161  3.80935397] [-0.85750877  4.65167901] [-0.89421683  3.60515396] [-0.54549026  1.97155388] [-0.54549026  0.33795379] [-1.26129742 -0.58094625] [-1.5549619  -0.45332125] [-0.89421683 -0.55542125] [-1.48154578 -0.55542125] [-1.48154578 -0.55542125] [-1.51825384 -0.65752126] [-1.51825384 -0.58094625] [-1.61002399 -0.63199626] [-1.83027235 -0.78514626] [-2.03216668 -0.88724627] [-2.08722876 -0.98934627] [-1.97710459 -0.98934627] [-1.72014817 -1.19354628] [-1.86698041 -1.5764213 ] [-2.03216668 -1.29564629] [-1.59166996 -1.5508963 ] [-1.7385022  -1.65299631] [-1.15117325 -1.65299631] [-0.96763295 -1.67852131] [-0.34359594 -1.62747131] [-0.17840967 -1.4232713 ] [-0.0132234  -1.16802128] [ 0.44562734 -1.14249628] [ 0.37221122 -0.86172127] [ 0.61081361 -0.81067127] [ 0.57410555 -0.63199626] [ 1.12472645 -0.30017124] [ 0.51904346 -0.19807123] [ 0.97789421 -0.01939623] [ 0.83106197 -0.04492123] [ 0.83106197  0.15927878] [ 0.09690078  0.05717878] [ 0.77599988 -0.09597123] [ 0.53739749 -0.19807123] [ 0.90447809 -0.30017124] [ 0.46398137 -0.14702123] [ 0.13360884 -0.30017124] [ 0.44562734 -0.09597123] [ 0.50068943  0.00612878] [ 0.62916764 -0.19807123] [ 0.64752167 -0.12149623] [ 0.75764585 -0.27464624] [ 0.92283212  0.21032879] [ 0.86777003 -0.12149623] [ 0.  0.] [ 0.  0.] [ 0.  0.] [ 0.  0.] [ 0.  0.] [ 0.  0.] [ 0.  0.] [ 0.  0.] [ 0.  0.] [ 0.  0.] [ 0.  0.] [ 0.  0.] [ 0.  0.] [ 0.  0.] [ 0.  0.] [ 0.  0.] [ 0.  0.] [ 0.  0.] [ 0.  0.] [ 0.  0.] [ 0.  0.] [ 0.  0.] [ 0.  0.] [ 0.  0.] [ 0.  0.] [ 0.  0.] [ 0.  0.] [ 0.  0.] [ 0.  0.] [ 0.  0.] [ 0.  0.] [ 0.  0.] [ 0.  0.] [ 0.  0.] [ 0.  0.] [ 0.  0.] [ 0.  0.] [ 0.  0.] [ 0.  0.] [ 0.  0.] [ 0.  0.] [ 0.  0.] [ 0.  0.] [ 0.  0.] [ 0.  0.] [ 0.  0.] [ 0.  0.] [ 0.  0.] [ 0.  0.] [ 0.  0.] [ 0.  0.] [ 0.  0.] [ 0.  0.] [ 0.  0.] [ 0.  0.] [ 0.  0.] [ 0.  0.] [ 0.  0.] [ 0.  0.] [ 0.  0.] [ 0.  0.] [ 0.  0.] [ 0.  0.] [ 0.  0.] [ 0.  0.] [ 0.  0.] [ 0.  0.] [ 0.  0.] [ 0.  0.] [ 0.  0.] [ 0.  0.] [ 0.  0.] [ 0.  0.] [ 0.  0.] [ 0.  0.] [ 0.  0.] [ 0.  0.] [ 0.  0.] [ 0.  0.] [ 0.  0.] [ 0.  0.] [ 0.  0.] [ 0.  0.] [ 0.  0.] [ 0.  0.] [ 0.  0.] [ 0.  0.] [ 0.  0.] [ 0.  0.] [ 0.  0.] [ 0.  0.] [ 0.  0.] [ 0.  0.] [ 0.  0.]
[ 1.68452435 -0.83619627] [ 2.85000524 -1.72957131] [ 3.36391808 -0.10873373] [ 3.12531569  0.79740382] [ 1.95065779  0.5421538 ] [ 0.77599988  1.28237884] [ 0.33550317  1.99707888] [ 0.22537899  2.86492892] [-0.03157743  3.96250398] [ 0.24373302  3.37542895] [ 0.26208705  1.74182886] [ 0.          0.10822878] [-0.49042817 -0.32569624] [-0.39865803 -0.27464624] [-0.45372011 -0.47884625] [-0.54549026 -0.50437125] [-0.61890638 -0.24912124] [ 0.00513063 -0.63199626] [-0.83915474 -0.32569624] [-0.36194997 -0.58094625] [-0.76573862 -0.68304626] [-1.07775713 -0.75962126] [-1.11446519 -0.81067127] [-1.40812966 -0.86172127] [-1.27965145 -1.06592128] [-1.51825384 -1.14249628] [-1.44483772 -1.19354628] [-1.51825384 -1.27012129] [-1.22458937 -1.24459629] [-1.0594031  -1.29564629] [-0.91257086 -1.39774629] [-0.60055235 -1.32117129] [-0.54549026 -0.91277127] [ 0.13360884 -1.04039628] [ 0.22537899 -0.70857126] [ 0.57410555 -0.55542125] [ 0.6658757  -0.45332125] [ 0.73929182 -0.24912124] [ 0.849416   -0.19807123] [ 0.90447809  0.00612878] [ 1.14308048  0.08270378] [ 1.01460227  0.21032879] [ 0.92283212  0.28690379] [ 1.06966436  0.28690379] [ 0.81270794  0.36347879] [ 0.92283212  0.36347879] [ 0.92283212  0.4400538 ] [ 1.05131033  0.61872881] [ 1.08801839  0.5676788 ] [ 1.08801839  0.4655788 ] [ 0.73929182  0.66977881] [ 0.94118615  0.79740382] [ 1.05131033  0.3890038 ] [ 1.21649659  0.26137879] [ 1.40003689  0.10822878] [ 1.45509898 -0.04492123] [ 0.88612406  0.        ] [ 0.97789421 -0.09597123] [ 0.849416    0.21032879] [ 0.95954018  0.05717878] [ 0.81270794  0.15927878] [ 0.73929182  0.36347879] [ 0.86777003  0.4145288 ] [ 0.  0.] [ 0.  0.] [ 0.  0.] [ 0.  0.] [ 0.  0.] [ 0.  0.] [ 0.  0.] [ 0.  0.] [ 0.  0.] [ 0.  0.] [ 0.  0.] [ 0.  0.] [ 0.  0.] [ 0.  0.] [ 0.  0.] [ 0.  0.] [ 0.  0.] [ 0.  0.] [ 0.  0.] [ 0.  0.] [ 0.  0.] [ 0.  0.] [ 0.  0.] [ 0.  0.] [ 0.  0.] [ 0.  0.] [ 0.  0.] [ 0.  0.] [ 0.  0.] [ 0.  0.] [ 0.  0.] [ 0.  0.] [ 0.  0.] [ 0.  0.] [ 0.  0.] [ 0.  0.] [ 0.  0.] [ 0.  0.] [ 0.  0.] [ 0.  0.] [ 0.  0.] [ 0.  0.] [ 0.  0.] [ 0.  0.] [ 0.  0.] [ 0.  0.] [ 0.  0.] [ 0.  0.] [ 0.  0.] [ 0.  0.] [ 0.  0.] [ 0.  0.] [ 0.  0.] [ 0.  0.] [ 0.  0.] [ 0.  0.] [ 0.  0.] [ 0.  0.] [ 0.  0.] [ 0.  0.] [ 0.  0.] [ 0.  0.] [ 0.  0.] [ 0.  0.] [ 0.  0.] [ 0.  0.] [ 0.  0.] [ 0.  0.] [ 0.  0.] [ 0.  0.] [ 0.  0.] [ 0.  0.] [ 0.  0.] [ 0.  0.] [ 0.  0.] [ 0.  0.] [ 0.  0.] [ 0.  0.] [ 0.  0.] [ 0.  0.] [ 0.  0.] [ 0.  0.] [ 0.  0.] [ 0.  0.] [ 0.  0.] [ 0.  0.] [ 0.  0.] [ 0.  0.] [ 0.  0.]
[ 1.98736584 -1.01487128] [ 3.15284674 -1.4487963 ] [ 3.05189957  0.17204128] [ 2.7582351  0.4145288] [ 1.58357719  0.61872881] [ 0.40891928  1.63972886] [-0.12334758  2.35442889] [ 0.29879511  3.09465393] [-0.27017982  3.57962896] [ 0.40891928  2.32890389] [ 0.          0.69530381] [-0.16005564 -0.52989625] [-0.65561444 -0.45332125] [-0.27017982 -0.50437125] [-0.76573862 -0.60647125] [-0.6923225  -0.55542125] [-0.98598698 -0.68304626] [-0.58219832 -0.68304626] [-0.8758628  -0.70857126] [-1.09611116 -0.78514626] [-1.16952728 -0.96382127] [-1.29800548 -1.04039628] [-1.40812966 -1.19354628] [-1.26129742 -1.29564629] [-1.66508608 -1.4743213 ] [-1.3714216  -1.75509631] [-1.31635951 -1.62747131] [-0.96763295 -1.5764213 ] [-0.47207414 -1.70404631] [-0.23347176 -1.62747131] [-0.03157743 -1.4487963 ] [ 0.26208705 -1.29564629] [ 0.61081361 -1.11697128] [ 0.75764585 -0.96382127] [ 0.90447809 -0.78514626] [ 0.97789421 -0.60647125] [ 1.08801839 -0.55542125] [ 1.0329563  -0.37674624] [ 1.21649659 -0.14702123] [ 0.90447809 -0.14702123] [ 1.16143451 -0.14702123] [ 0.79435391  0.00612878] [ 0.97789421  0.08270378] [ 0.79435391  0.08270378] [ 0.94118615  0.28690379] [ 0.94118615  0.28690379] [ 1.01460227  0.33795379] [ 0.97789421  0.4145288 ] [ 0.88612406  0.4655788 ] [ 0.97789421  0.28690379] [ 1.30826674  0.05717878] [ 1.54686913 -0.01939623] [ 1.17978853  0.00612878] [ 1.3449748   0.05717878] [ 1.17978853 -0.09597123] [ 1.17978853 -0.07044623] [ 1.3449748  0.       ] [ 1.21649659  0.        ] [ 1.01460227  0.18480379] [ 1.28991271  0.23585379] [ 0.  0.] [ 0.  0.] [ 0.  0.] [ 0.  0.] [ 0.  0.] [ 0.  0.] [ 0.  0.] [ 0.  0.] [ 0.  0.] [ 0.  0.] [ 0.  0.] [ 0.  0.] [ 0.  0.] [ 0.  0.] [ 0.  0.] [ 0.  0.] [ 0.  0.] [ 0.  0.] [ 0.  0.] [ 0.  0.] [ 0.  0.] [ 0.  0.] [ 0.  0.] [ 0.  0.] [ 0.  0.] [ 0.  0.] [ 0.  0.] [ 0.  0.] [ 0.  0.] [ 0.  0.] [ 0.  0.] [ 0.  0.] [ 0.  0.] [ 0.  0.] [ 0.  0.] [ 0.  0.] [ 0.  0.] [ 0.  0.] [ 0.  0.] [ 0.  0.] [ 0.  0.] [ 0.  0.] [ 0.  0.] [ 0.  0.] [ 0.  0.] [ 0.  0.] [ 0.  0.] [ 0.  0.] [ 0.  0.] [ 0.  0.] [ 0.  0.] [ 0.  0.] [ 0.  0.] [ 0.  0.] [ 0.  0.] [ 0.  0.] [ 0.  0.] [ 0.  0.] [ 0.  0.] [ 0.  0.] [ 0.  0.] [ 0.  0.] [ 0.  0.] [ 0.  0.] [ 0.  0.] [ 0.  0.] [ 0.  0.] [ 0.  0.] [ 0.  0.] [ 0.  0.] [ 0.  0.] [ 0.  0.] [ 0.  0.] [ 0.  0.] [ 0.  0.] [ 0.  0.] [ 0.  0.] [ 0.  0.] [ 0.  0.] [ 0.  0.] [ 0.  0.] [ 0.  0.] [ 0.  0.] [ 0.  0.] [ 0.  0.] [ 0.  0.] [ 0.  0.] [ 0.  0.] [ 0.  0.] [ 0.  0.] [ 0.  0.] [ 0.  0.]
[ 1.01460227  0.        ] [ 2.11584405 -0.96382127] [ 3.28132494 -1.5253713 ] [ 3.23543987  0.09546628] [ 2.97848345  0.5676788 ] [ 1.80382555  0.92502882] [ 0.62916764  1.94602887] [ 0.00513063  2.60967891] [-0.14170161  3.50305395] [-0.72903056  4.26880399] [-0.34359594  3.14570393] [-0.16005564  1.51210385] [-0.17840967 -0.12149623] [-0.34359594 -0.47884625] [-0.72903056 -0.40227124] [-0.83915474 -0.40227124] [-0.76573862 -0.55542125] [-0.98598698 -0.55542125] [-1.07775713 -0.63199626] [-1.46319175 -0.58094625] [-1.59166996 -0.63199626] [-1.64673205 -0.75962126] [-1.94039653 -0.83619627] [-2.05052071 -0.81067127] [-2.16064488 -0.96382127] [-2.14229085 -0.96382127] [-1.88533444 -0.96382127] [-1.88533444 -1.19354628] [-1.77521026 -1.19354628] [-1.5549619  -1.09144628] [-1.20623534 -1.21907129] [-0.96763295 -1.04039628] [-0.56384429 -1.09144628] [-0.28853385 -0.88724627] [-0.27017982 -0.75962126] [ 0.22537899 -0.63199626] [ 0.22537899 -0.50437125] [ 0.28044108 -0.37674624] [ 0.40891928 -0.19807123] [ 0.42727331  0.10822878] [ 0.68422973  0.08270378] [ 0.6658757   0.15927878] [ 0.55575152  0.3890038 ] [ 0.57410555  0.4145288 ] [ 0.37221122  0.23585379] [ 0.62916764  0.08270378] [ 0.68422973  0.08270378] [ 0.64752167  0.08270378] [ 0.22537899  0.05717878] [ 0.40891928 -0.07044623] [ 0.40891928  0.18480379] [ 0.57410555  0.15927878] [ 0.50068943  0.10822878] [ 0.6658757   0.18480379] [ 0.68422973  0.26137879] [ 0.  0.] [ 0.  0.] [ 0.  0.] [ 0.  0.] [ 0.  0.] [ 0.  0.] [ 0.  0.] [ 0.  0.] [ 0.  0.] [ 0.  0.] [ 0.  0.] [ 0.  0.] [ 0.  0.] [ 0.  0.] [ 0.  0.] [ 0.  0.] [ 0.  0.] [ 0.  0.] [ 0.  0.] [ 0.  0.] [ 0.  0.] [ 0.  0.] [ 0.  0.] [ 0.  0.] [ 0.  0.] [ 0.  0.] [ 0.  0.] [ 0.  0.] [ 0.  0.] [ 0.  0.] [ 0.  0.] [ 0.  0.] [ 0.  0.] [ 0.  0.] [ 0.  0.] [ 0.  0.] [ 0.  0.] [ 0.  0.] [ 0.  0.] [ 0.  0.] [ 0.  0.] [ 0.  0.] [ 0.  0.] [ 0.  0.] [ 0.  0.] [ 0.  0.] [ 0.  0.] [ 0.  0.] [ 0.  0.] [ 0.  0.] [ 0.  0.] [ 0.  0.] [ 0.  0.] [ 0.  0.] [ 0.  0.] [ 0.  0.] [ 0.  0.] [ 0.  0.] [ 0.  0.] [ 0.  0.] [ 0.  0.] [ 0.  0.] [ 0.  0.] [ 0.  0.] [ 0.  0.] [ 0.  0.] [ 0.  0.] [ 0.  0.] [ 0.  0.] [ 0.  0.] [ 0.  0.] [ 0.  0.] [ 0.  0.] [ 0.  0.] [ 0.  0.] [ 0.  0.] [ 0.  0.] [ 0.  0.] [ 0.  0.] [ 0.  0.] [ 0.  0.] [ 0.  0.] [ 0.  0.] [ 0.  0.] [ 0.  0.] [ 0.  0.] [ 0.  0.] [ 0.  0.] [ 0.  0.] [ 0.  0.] [ 0.  0.] [ 0.  0.] [ 0.  0.] [ 0.  0.] [ 0.  0.] [ 0.  0.] [ 0.  0.]
[ 0.99624824 -0.07044623] [ 1.47345301 -0.24912124] [ 2.33609241 -1.4998463 ] [ 3.45568823 -0.63199626] [ 2.99683748  0.98884133] [ 1.82217958  0.21032879] [ 0.64752167  1.25685384] [-0.23347176  1.99707888] [ 0.          2.73730391] [-0.21511773  3.80935397] [-0.23347176  3.73277896] [-0.16005564  2.17575389] [-0.16005564  0.5421538 ] [-0.54549026 -0.52989625] [-0.61890638 -0.45332125] [-0.89421683 -0.58094625] [-0.89421683 -0.58094625] [-1.00434101 -0.52989625] [-0.96763295 -0.68304626] [-1.26129742 -0.65752126] [-1.31635951 -0.75962126] [-1.46319175 -0.86172127] [-1.77521026 -0.98934627] [-1.99545862 -0.93829627] [-1.83027235 -1.16802128] [-1.94039653 -1.21907129] [-1.9220425  -1.39774629] [-1.99545862 -1.4487963 ] [-1.68344011 -1.4232713 ] [-1.13281922 -1.5764213 ] [-1.02269504 -1.5508963 ] [-0.71067653 -1.4232713 ] [-0.49042817 -1.06592128] [ 0.06019272 -1.04039628] [ 0.20702496 -0.86172127] [ 0.37221122 -0.75962126] [ 0.59245958 -0.58094625] [ 0.44562734 -0.30017124] [ 0.72093779 -0.17254623] [ 0.97789421 -0.14702123] [ 0.86777003  0.00612878] [ 0.99624824  0.26137879] [ 1.23485062  0.21032879] [ 1.01460227  0.33795379] [ 1.32662077  0.4911038 ] [ 1.10637242  0.33795379] [ 1.14308048  0.26137879] [ 1.49180704  0.05717878] [ 1.73040943 -0.09597123] [ 1.56522316 -0.04492123] [ 1.32662077 -0.01939623] [ 1.36332883 -0.14702123] [ 1.17978853  0.10822878] [ 1.69370137  0.        ] [ 1.69370137  0.23585379] [ 1.84053361  0.00612878] [ 1.69370137  0.26137879] [ 0.  0.] [ 0.  0.] [ 0.  0.] [ 0.  0.] [ 0.  0.] [ 0.  0.] [ 0.  0.] [ 0.  0.] [ 0.  0.] [ 0.  0.] [ 0.  0.] [ 0.  0.] [ 0.  0.] [ 0.  0.] [ 0.  0.] [ 0.  0.] [ 0.  0.] [ 0.  0.] [ 0.  0.] [ 0.  0.] [ 0.  0.] [ 0.  0.] [ 0.  0.] [ 0.  0.] [ 0.  0.] [ 0.  0.] [ 0.  0.] [ 0.  0.] [ 0.  0.] [ 0.  0.] [ 0.  0.] [ 0.  0.] [ 0.  0.] [ 0.  0.] [ 0.  0.] [ 0.  0.] [ 0.  0.] [ 0.  0.] [ 0.  0.] [ 0.  0.] [ 0.  0.] [ 0.  0.] [ 0.  0.] [ 0.  0.] [ 0.  0.] [ 0.  0.] [ 0.  0.] [ 0.  0.] [ 0.  0.] [ 0.  0.] [ 0.  0.] [ 0.  0.] [ 0.  0.] [ 0.  0.] [ 0.  0.] [ 0.  0.] [ 0.  0.] [ 0.  0.] [ 0.  0.] [ 0.  0.] [ 0.  0.] [ 0.  0.] [ 0.  0.] [ 0.  0.] [ 0.  0.] [ 0.  0.] [ 0.  0.] [ 0.  0.] [ 0.  0.] [ 0.  0.] [ 0.  0.] [ 0.  0.] [ 0.  0.] [ 0.  0.] [ 0.  0.] [ 0.  0.] [ 0.  0.] [ 0.  0.] [ 0.  0.] [ 0.  0.] [ 0.  0.] [ 0.  0.] [ 0.  0.] [ 0.  0.] [ 0.  0.] [ 0.  0.] [ 0.  0.] [ 0.  0.] [ 0.  0.] [ 0.  0.] [ 0.  0.] [ 0.  0.] [ 0.  0.] [ 0.  0.] [ 0.  0.]
[ 0.86777003  0.5166288 ] [ 0.73929182  0.31242879] [ 1.62028525 -0.70857126] [ 2.61140286 -1.60194631] [ 2.00571987  0.01889128] [ 2.09749002  0.95055382] [ 0.92283212  1.25685384] [-0.23347176  1.99707888] [-0.25182579  2.73730391] [-0.25182579  3.60515396] [-0.71067653  4.345379  ] [-0.74738459  3.42647895] [-0.52713623  1.79287887] [-1.04104907  0.15927878] [-1.00434101 -0.07044623] [-0.91257086 -0.24912124] [-1.2429434  -0.22359624] [-1.42648369 -0.37674624] [-1.46319175 -0.50437125] [-1.7385022  -0.47884625] [-1.7385022  -0.63199626] [-1.99545862 -0.58094625] [-1.66508608 -0.75962126] [-2.34418518 -0.91277127] [-2.34418518 -1.21907129] [-2.43595533 -1.27012129] [-2.27076906 -1.39774629] [-2.32583115 -1.5764213 ] [-2.16064488 -1.5764213 ] [-1.88533444 -1.62747131] [-1.66508608 -1.67852131] [-1.29800548 -1.5508963 ] [-0.89421683 -1.65299631] [-0.78409265 -1.39774629] [-0.10499355 -1.16802128] [-0.12334758 -1.01487128] [ 0.02348466 -0.86172127] [ 0.29879511 -0.63199626] [ 0.37221122 -0.50437125] [ 0.33550317 -0.24912124] [ 0.46398137  0.00612878] [ 0.57410555  0.        ] [ 0.62916764  0.10822878] [ 0.50068943  0.15927878] [ 0.64752167  0.13375378] [ 0.70258376  0.15927878] [ 0.59245958  0.31242879] [ 0.61081361  0.3890038 ] [ 0.83106197  0.33795379] [ 0.849416   0.5421538] [ 0.90447809  0.4655788 ] [ 1.0329563  0.3890038] [ 0.72093779  0.66977881] [ 1.25320465  0.5421538 ] [ 1.25320465  0.15927878] [ 1.28991271  0.00612878] [ 1.06966436 -0.24912124] [ 0.90447809 -0.32569624] [ 1.41839092 -0.24912124] [ 0.90447809 -1.11697128] [ 1.65699331 -2.11244633] [ 1.28991271 -2.16349633] [ 1.65699331 -2.01034633] [ 0.4823354  -3.64394641] [ 0.  0.] [ 0.  0.] [ 0.  0.] [ 0.  0.] [ 0.  0.] [ 0.  0.] [ 0.  0.] [ 0.  0.] [ 0.  0.] [ 0.  0.] [ 0.  0.] [ 0.  0.] [ 0.  0.] [ 0.  0.] [ 0.  0.] [ 0.  0.] [ 0.  0.] [ 0.  0.] [ 0.  0.] [ 0.  0.] [ 0.  0.] [ 0.  0.] [ 0.  0.] [ 0.  0.] [ 0.  0.] [ 0.  0.] [ 0.  0.] [ 0.  0.] [ 0.  0.] [ 0.  0.] [ 0.  0.] [ 0.  0.] [ 0.  0.] [ 0.  0.] [ 0.  0.] [ 0.  0.] [ 0.  0.] [ 0.  0.] [ 0.  0.] [ 0.  0.] [ 0.  0.] [ 0.  0.] [ 0.  0.] [ 0.  0.] [ 0.  0.] [ 0.  0.] [ 0.  0.] [ 0.  0.] [ 0.  0.] [ 0.  0.] [ 0.  0.] [ 0.  0.] [ 0.  0.] [ 0.  0.] [ 0.  0.] [ 0.  0.] [ 0.  0.] [ 0.  0.] [ 0.  0.] [ 0.  0.] [ 0.  0.] [ 0.  0.] [ 0.  0.] [ 0.  0.] [ 0.  0.] [ 0.  0.] [ 0.  0.] [ 0.  0.] [ 0.  0.] [ 0.  0.] [ 0.  0.] [ 0.  0.] [ 0.  0.] [ 0.  0.] [ 0.  0.] [ 0.  0.] [ 0.  0.] [ 0.  0.] [ 0.  0.] [ 0.  0.] [ 0.  0.] [ 0.  0.] [ 0.  0.] [ 0.  0.] [ 0.  0.] [ 0.  0.] [ 0.  0.] [ 0.  0.]
[-0.6923225  -5.14992148] [-1.09611116 -5.55832151] [-1.02269504 -4.71599646] [-0.58219832 -3.09515888] [-1.09611116 -1.4743213 ] [-0.80244668 -0.35122124] [-0.49042817  0.05717878] [-0.5087822   0.05717878] [ 0.09690078  0.26137879] [ 0.11525481  0.23585379] [-0.32524191  0.23585379] [ 0.42727331  0.26137879] [-0.30688788  0.4911038 ] [ 0.26208705  0.4400538 ] [-0.06828549  0.4145288 ] [ 0.02348466  0.64425381] [-0.12334758  0.69530381] [ 0.06019272  0.72082881] [ 0.09690078  1.00160383] [-0.1967637   0.92502882] [-0.04993146  1.20580384] [ 0.44562734  1.12922883] [ 0.28044108  1.18027884] [ 0.51904346  1.15475383] [ 0.39056525  1.18027884] [ 0.81270794  1.00160383] [ 0.72093779  0.92502882] [ 1.19814256  0.95055382] [ 1.16143451  0.59320381] [ 0.86777003  0.5166288 ] [ 1.51016107  0.3890038 ] [ 1.36332883  0.21032879] [ 1.25320465  0.10822878] [ 1.36332883  0.        ] [ 1.3449748   0.15927878] [ 1.54686913  0.08270378] [ 1.30826674 -0.01939623] [ 1.47345301  0.10822878] [ 1.45509898  0.05717878] [ 1.5285151  0.       ] [ 1.27155868  0.00612878] [ 1.43674495  0.08270378] [ 1.25320465  0.33795379] [ 1.43674495  0.26137879] [ 1.67534734  0.26137879] [ 1.3449748  0.4145288] [ 1.28991271  0.5166288 ] [ 1.3449748  0.4145288] [ 1.17978853  0.21032879] [ 1.54686913  0.10822878] [ 1.3449748  -0.14702123] [ 1.21649659 -0.19807123] [ 0.70258376 -0.30017124] [ 0.88612406 -0.32569624] [ 0.79435391 -0.01939623] [ 0.90447809 -0.24912124] [ 0.61081361 -0.19807123] [ 0.86777003 -0.17254623] [ 0.94118615  0.        ] [ 0.  0.] [ 0.  0.] [ 0.  0.] [ 0.  0.] [ 0.  0.] [ 0.  0.] [ 0.  0.] [ 0.  0.] [ 0.  0.] [ 0.  0.] [ 0.  0.] [ 0.  0.] [ 0.  0.] [ 0.  0.] [ 0.  0.] [ 0.  0.] [ 0.  0.] [ 0.  0.] [ 0.  0.] [ 0.  0.] [ 0.  0.] [ 0.  0.] [ 0.  0.] [ 0.  0.] [ 0.  0.] [ 0.  0.] [ 0.  0.] [ 0.  0.] [ 0.  0.] [ 0.  0.] [ 0.  0.] [ 0.  0.] [ 0.  0.] [ 0.  0.] [ 0.  0.] [ 0.  0.] [ 0.  0.] [ 0.  0.] [ 0.  0.] [ 0.  0.] [ 0.  0.] [ 0.  0.] [ 0.  0.] [ 0.  0.] [ 0.  0.] [ 0.  0.] [ 0.  0.] [ 0.  0.] [ 0.  0.] [ 0.  0.] [ 0.  0.] [ 0.  0.] [ 0.  0.] [ 0.  0.] [ 0.  0.] [ 0.  0.] [ 0.  0.] [ 0.  0.] [ 0.  0.] [ 0.  0.] [ 0.  0.] [ 0.  0.] [ 0.  0.] [ 0.  0.] [ 0.  0.] [ 0.  0.] [ 0.  0.] [ 0.  0.] [ 0.  0.] [ 0.  0.] [ 0.  0.] [ 0.  0.] [ 0.  0.] [ 0.  0.] [ 0.  0.] [ 0.  0.] [ 0.  0.] [ 0.  0.] [ 0.  0.] [ 0.  0.] [ 0.  0.] [ 0.  0.] [ 0.  0.] [ 0.  0.] [ 0.  0.] [ 0.  0.] [ 0.  0.] [ 0.  0.] [ 0.  0.] [ 0.  0.] [ 0.  0.] [ 0.  0.] [ 0.  0.]
[ 0.88612406 -0.04492123] [ 1.08801839 -0.14702123] [ 2.25349928 -1.21907129] [ 3.41898017 -1.21907129] [ 2.85000524  0.4017663 ] [ 2.07913599  0.05717878] [ 0.90447809  0.84845382] [-0.23347176  1.63972886] [ 0.44562734  2.35442889] [ 0.13360884  3.24780394] [-0.17840967  3.68172896] [ 0.28044108  2.27785389] [-0.03157743  0.64425381] [-0.71067653 -0.07044623] [-0.89421683 -0.12149623] [-0.94927892 -0.24912124] [-0.96763295 -0.22359624] [-1.18788131 -0.17254623] [-1.16952728 -0.40227124] [-1.49989981 -0.30017124] [-1.57331593 -0.45332125] [-1.84862638 -0.65752126] [-2.30747712 -0.68304626] [-2.47266339 -1.06592128] [-3.07834637 -1.09144628] [-2.76632787 -1.32117129] [-3.05999234 -1.4743213 ] [-2.72961981 -1.5764213 ] [-2.65620369 -1.80614632] [-2.56443354 -1.70404631] [-2.01381265 -1.80614632] [-1.57331593 -1.60194631] [-1.16952728 -1.62747131] [-0.91257086 -1.5764213 ] [-0.52713623 -1.32117129] [-0.30688788 -0.91277127] [ 0.24373302 -1.11697128] [-0.14170161 -0.83619627] [ 0.44562734 -0.68304626] [ 0.29879511 -0.52989625] [ 0.46398137 -0.22359624] [ 0.40891928 -0.14702123] [ 0.46398137 -0.04492123] [ 0.61081361  0.00612878] [ 0.44562734  0.15927878] [ 0.53739749  0.18480379] [ 0.53739749  0.36347879] [ 0.72093779  0.4145288 ] [ 0.51904346  0.36347879] [ 0.64752167  0.4911038 ] [ 0.6658757  0.4911038] [ 0.64752167  0.61872881] [ 0.6658757  0.3890038] [ 0.92283212  0.13375378] [ 1.06966436  0.05717878] [ 1.19814256 -0.01939623] [ 0.6658757   0.00612878] [ 0.68422973 -0.04492123] [ 0.61081361  0.05717878] [ 0.68422973  0.08270378] [ 0.61081361  0.15927878] [ 0.55575152  0.28690379] [ 0.73929182  0.5421538 ] [ 0.  0.] [ 0.  0.] [ 0.  0.] [ 0.  0.] [ 0.  0.] [ 0.  0.] [ 0.  0.] [ 0.  0.] [ 0.  0.] [ 0.  0.] [ 0.  0.] [ 0.  0.] [ 0.  0.] [ 0.  0.] [ 0.  0.] [ 0.  0.] [ 0.  0.] [ 0.  0.] [ 0.  0.] [ 0.  0.] [ 0.  0.] [ 0.  0.] [ 0.  0.] [ 0.  0.] [ 0.  0.] [ 0.  0.] [ 0.  0.] [ 0.  0.] [ 0.  0.] [ 0.  0.] [ 0.  0.] [ 0.  0.] [ 0.  0.] [ 0.  0.] [ 0.  0.] [ 0.  0.] [ 0.  0.] [ 0.  0.] [ 0.  0.] [ 0.  0.] [ 0.  0.] [ 0.  0.] [ 0.  0.] [ 0.  0.] [ 0.  0.] [ 0.  0.] [ 0.  0.] [ 0.  0.] [ 0.  0.] [ 0.  0.] [ 0.  0.] [ 0.  0.] [ 0.  0.] [ 0.  0.] [ 0.  0.] [ 0.  0.] [ 0.  0.] [ 0.  0.] [ 0.  0.] [ 0.  0.] [ 0.  0.] [ 0.  0.] [ 0.  0.] [ 0.  0.] [ 0.  0.] [ 0.  0.] [ 0.  0.] [ 0.  0.] [ 0.  0.] [ 0.  0.] [ 0.  0.] [ 0.  0.] [ 0.  0.] [ 0.  0.] [ 0.  0.] [ 0.  0.] [ 0.  0.] [ 0.  0.] [ 0.  0.] [ 0.  0.] [ 0.  0.] [ 0.  0.] [ 0.  0.] [ 0.  0.] [ 0.  0.] [ 0.  0.] [ 0.  0.] [ 0.  0.] [ 0.  0.]
[ 0.62916764  0.33795379] [ 1.14308048 -0.12149623] [ 2.13419808 -1.24459629] [ 3.29967897 -0.50437125] [ 2.46457062  1.11646633] [ 1.28991271  0.59320381] [ 0.11525481  1.38447885] [-0.27017982  2.17575389] [-0.06828549  2.96702893] [-0.12334758  3.98802898] [-0.21511773  3.98802898] [ 0.04183869  2.35442889] [-0.14170161  0.72082881] [-0.85750877  0.21032879] [-0.41701206 -0.09597123] [-1.11446519 -0.12149623] [-1.02269504 -0.09597123] [-1.00434101 -0.12149623] [-1.20623534 -0.22359624] [-1.29800548 -0.24912124] [-1.46319175 -0.32569624] [-1.5549619  -0.50437125] [-1.68344011 -0.45332125] [-1.9220425  -0.68304626] [-1.90368847 -0.78514626] [-2.05052071 -0.86172127] [-1.94039653 -1.06592128] [-1.99545862 -1.37222129] [-1.75685623 -1.39774629] [-1.77521026 -1.14249628] [-1.11446519 -1.29564629] [-0.91257086 -1.4487963 ] [-0.83915474 -1.21907129] [-0.41701206 -1.01487128] [-0.06828549 -0.91277127] [ 0.15196287 -0.68304626] [ 0.20702496 -0.58094625] [ 0.31714914 -0.47884625] [ 0.28044108 -0.19807123] [ 0.53739749 -0.17254623] [ 0.50068943  0.15927878] [ 0.72093779  0.31242879] [ 0.86777003  0.26137879] [ 0.73929182  0.5166288 ] [ 0.73929182  0.59320381] [ 0.97789421  0.4400538 ] [ 0.57410555  0.84845382] [ 0.73929182  0.79740382] [ 0.95954018  0.61872881] [ 1.17978853  0.5421538 ] [ 1.28991271  0.36347879] [ 0.97789421  0.33795379] [ 0.95954018  0.36347879] [ 0.75764585  0.36347879] [ 0.94118615  0.3890038 ] [ 1.05131033  0.4400538 ] [ 1.0329563  0.4911038] [ 1.0329563   0.33795379] [ 0.95954018  0.5676788 ] [ 0.94118615  0.4655788 ] [ 0.  0.] [ 0.  0.] [ 0.  0.] [ 0.  0.] [ 0.  0.] [ 0.  0.] [ 0.  0.] [ 0.  0.] [ 0.  0.] [ 0.  0.] [ 0.  0.] [ 0.  0.] [ 0.  0.] [ 0.  0.] [ 0.  0.] [ 0.  0.] [ 0.  0.] [ 0.  0.] [ 0.  0.] [ 0.  0.] [ 0.  0.] [ 0.  0.] [ 0.  0.] [ 0.  0.] [ 0.  0.] [ 0.  0.] [ 0.  0.] [ 0.  0.] [ 0.  0.] [ 0.  0.] [ 0.  0.] [ 0.  0.] [ 0.  0.] [ 0.  0.] [ 0.  0.] [ 0.  0.] [ 0.  0.] [ 0.  0.] [ 0.  0.] [ 0.  0.] [ 0.  0.] [ 0.  0.] [ 0.  0.] [ 0.  0.] [ 0.  0.] [ 0.  0.] [ 0.  0.] [ 0.  0.] [ 0.  0.] [ 0.  0.] [ 0.  0.] [ 0.  0.] [ 0.  0.] [ 0.  0.] [ 0.  0.] [ 0.  0.] [ 0.  0.] [ 0.  0.] [ 0.  0.] [ 0.  0.] [ 0.  0.] [ 0.  0.] [ 0.  0.] [ 0.  0.] [ 0.  0.] [ 0.  0.] [ 0.  0.] [ 0.  0.] [ 0.  0.] [ 0.  0.] [ 0.  0.] [ 0.  0.] [ 0.  0.] [ 0.  0.] [ 0.  0.] [ 0.  0.] [ 0.  0.] [ 0.  0.] [ 0.  0.] [ 0.  0.] [ 0.  0.] [ 0.  0.] [ 0.  0.] [ 0.  0.] [ 0.  0.] [ 0.  0.] [ 0.  0.] [ 0.  0.] [ 0.  0.] [ 0.  0.] [ 0.  0.] [ 0.  0.]
[ 0.4823354   0.26137879] [ 1.56522316 -0.68304626] [ 2.73070405 -1.72957131] [ 2.44621659 -0.10873373] [ 2.17090614  1.15475383] [ 0.99624824  1.58867886] [-0.17840967  2.4310039 ] [-0.43536609  3.45200395] [-0.14170161  4.396429  ] [-0.58219832  5.08560403] [-0.67396847  3.55410396] [-0.61890638  1.92050387] [-0.43536609  0.28690379] [-0.93092489 -0.07044623] [-1.13281922 -0.17254623] [-1.04104907 -0.22359624] [-1.11446519 -0.35122124] [-1.57331593 -0.27464624] [-1.57331593 -0.37674624] [-1.88533444 -0.30017124] [-2.05052071 -0.42779625] [-2.21570697 -0.50437125] [-2.36253921 -0.45332125] [-2.36253921 -0.63199626] [-2.38089324 -0.60647125] [-2.27076906 -0.75962126] [-1.99545862 -0.75962126] [-1.90368847 -1.09144628] [-1.83027235 -0.93829627] [-1.31635951 -1.14249628] [-0.67396847 -1.24459629] [-0.76573862 -1.21907129] [-0.5087822  -1.14249628] [-0.06828549 -1.01487128] [-0.06828549 -0.93829627] [ 0.1703169  -0.88724627] [ 0.1703169  -0.60647125] [ 0.39056525 -0.52989625] [-0.03157743 -0.35122124] [ 0.39056525 -0.35122124] [ 0.29879511 -0.04492123] [ 0.1703169  -0.04492123] [ 0.53739749 -0.01939623] [ 0.24373302  0.        ] [ 0.40891928  0.18480379] [ 0.33550317  0.05717878] [ 0.4823354   0.33795379] [ 0.61081361  0.23585379] [ 0.53739749  0.18480379] [ 0.55575152  0.31242879] [ 0.62916764  0.4655788 ] [ 0.53739749  0.4400538 ] [ 1.10637242  0.18480379] [ 0.92283212  0.08270378] [ 1.16143451 -0.07044623] [ 0.75764585 -0.09597123] [ 0.88612406  0.        ] [ 0.59245958 -0.04492123] [ 0.81270794  0.18480379] [ 0.79435391  0.08270378] [ 0.83106197  0.08270378] [ 0.68422973  0.4655788 ] [ 0.  0.] [ 0.  0.] [ 0.  0.] [ 0.  0.] [ 0.  0.] [ 0.  0.] [ 0.  0.] [ 0.  0.] [ 0.  0.] [ 0.  0.] [ 0.  0.] [ 0.  0.] [ 0.  0.] [ 0.  0.] [ 0.  0.] [ 0.  0.] [ 0.  0.] [ 0.  0.] [ 0.  0.] [ 0.  0.] [ 0.  0.] [ 0.  0.] [ 0.  0.] [ 0.  0.] [ 0.  0.] [ 0.  0.] [ 0.  0.] [ 0.  0.] [ 0.  0.] [ 0.  0.] [ 0.  0.] [ 0.  0.] [ 0.  0.] [ 0.  0.] [ 0.  0.] [ 0.  0.] [ 0.  0.] [ 0.  0.] [ 0.  0.] [ 0.  0.] [ 0.  0.] [ 0.  0.] [ 0.  0.] [ 0.  0.] [ 0.  0.] [ 0.  0.] [ 0.  0.] [ 0.  0.] [ 0.  0.] [ 0.  0.] [ 0.  0.] [ 0.  0.] [ 0.  0.] [ 0.  0.] [ 0.  0.] [ 0.  0.] [ 0.  0.] [ 0.  0.] [ 0.  0.] [ 0.  0.] [ 0.  0.] [ 0.  0.] [ 0.  0.] [ 0.  0.] [ 0.  0.] [ 0.  0.] [ 0.  0.] [ 0.  0.] [ 0.  0.] [ 0.  0.] [ 0.  0.] [ 0.  0.] [ 0.  0.] [ 0.  0.] [ 0.  0.] [ 0.  0.] [ 0.  0.] [ 0.  0.] [ 0.  0.] [ 0.  0.] [ 0.  0.] [ 0.  0.] [ 0.  0.] [ 0.  0.] [ 0.  0.] [ 0.  0.] [ 0.  0.] [ 0.  0.] [ 0.  0.] [ 0.  0.]
[ 0.88612406  0.00612878] [ 1.19814256 -0.01939623] [ 2.33609241 -1.14249628] [ 3.5015733  -1.27012129] [ 3.14366972  0.35071629] [ 2.22596823  0.3890038 ] [ 1.05131033  1.25685384] [-0.12334758  1.99707888] [-0.36194997  2.91597892] [-0.32524191  3.80935397] [-0.58219832  4.16670399] [-0.47207414  2.5331039 ] [-0.54549026  0.89950382] [-0.82080071 -0.22359624] [-0.96763295 -0.52989625] [-1.31635951 -0.37674624] [-1.27965145 -0.45332125] [-1.38977563 -0.42779625] [-1.44483772 -0.52989625] [-1.5549619  -0.40227124] [-1.72014817 -0.58094625] [-2.25241503 -0.63199626] [-2.21570697 -0.60647125] [-2.74797384 -0.73409626] [-2.72961981 -0.91277127] [-3.00493025 -0.88724627] [-3.00493025 -1.04039628] [-2.69291175 -1.11697128] [-2.63784966 -1.01487128] [-2.21570697 -1.16802128] [-1.94039653 -1.01487128] [-1.40812966 -0.78514626] [-0.65561444 -0.96382127] [-0.58219832 -0.75962126] [-0.1967637  -0.42779625] [ 0.1703169  -0.45332125] [ 0.20702496 -0.40227124] [ 0.44562734 -0.30017124] [ 0.37221122 -0.24912124] [ 0.39056525 -0.14702123] [ 0.1703169  -0.01939623] [ 0.51904346  0.08270378] [ 0.39056525  0.18480379] [ 0.28044108  0.26137879] [ 0.31714914  0.26137879] [ 0.40891928  0.23585379] [ 0.31714914  0.4911038 ] [ 0.42727331  0.4911038 ] [ 0.55575152  0.5676788 ] [ 0.4823354   0.61872881] [ 0.42727331  0.95055382] [ 0.51904346  0.5676788 ] [ 0.849416   0.4145288] [ 0.81270794  0.26137879] [ 0.77599988  0.05717878] [ 0.4823354   0.10822878] [ 0.40891928 -0.01939623] [ 0.59245958  0.08270378] [ 0.44562734  0.15927878] [ 0.33550317  0.15927878] [ 0.53739749  0.18480379] [ 0.4823354   0.31242879] [ 0.  0.] [ 0.  0.] [ 0.  0.] [ 0.  0.] [ 0.  0.] [ 0.  0.] [ 0.  0.] [ 0.  0.] [ 0.  0.] [ 0.  0.] [ 0.  0.] [ 0.  0.] [ 0.  0.] [ 0.  0.] [ 0.  0.] [ 0.  0.] [ 0.  0.] [ 0.  0.] [ 0.  0.] [ 0.  0.] [ 0.  0.] [ 0.  0.] [ 0.  0.] [ 0.  0.] [ 0.  0.] [ 0.  0.] [ 0.  0.] [ 0.  0.] [ 0.  0.] [ 0.  0.] [ 0.  0.] [ 0.  0.] [ 0.  0.] [ 0.  0.] [ 0.  0.] [ 0.  0.] [ 0.  0.] [ 0.  0.] [ 0.  0.] [ 0.  0.] [ 0.  0.] [ 0.  0.] [ 0.  0.] [ 0.  0.] [ 0.  0.] [ 0.  0.] [ 0.  0.] [ 0.  0.] [ 0.  0.] [ 0.  0.] [ 0.  0.] [ 0.  0.] [ 0.  0.] [ 0.  0.] [ 0.  0.] [ 0.  0.] [ 0.  0.] [ 0.  0.] [ 0.  0.] [ 0.  0.] [ 0.  0.] [ 0.  0.] [ 0.  0.] [ 0.  0.] [ 0.  0.] [ 0.  0.] [ 0.  0.] [ 0.  0.] [ 0.  0.] [ 0.  0.] [ 0.  0.] [ 0.  0.] [ 0.  0.] [ 0.  0.] [ 0.  0.] [ 0.  0.] [ 0.  0.] [ 0.  0.] [ 0.  0.] [ 0.  0.] [ 0.  0.] [ 0.  0.] [ 0.  0.] [ 0.  0.] [ 0.  0.] [ 0.  0.] [ 0.  0.] [ 0.  0.] [ 0.  0.] [ 0.  0.]
[ 1.30826674  0.66977881] [ 1.40003689  0.33795379] [ 2.17090614 -0.83619627] [ 3.33638703 -1.80614632] [ 2.37280047 -0.18530873] [ 2.00571987  0.97607883] [ 0.83106197  1.46105385] [-0.0132234  2.3799539] [ 0.1703169   3.19675394] [-0.10499355  4.16670399] [-0.32524191  4.95797903] [-0.17840967  3.52857895] [-0.28853385  1.89497887] [-0.12334758  0.26137879] [-1.0594031  -0.17254623] [-0.71067653 -0.22359624] [-1.13281922 -0.14702123] [-1.27965145 -0.24912124] [-1.29800548 -0.19807123] [-1.44483772 -0.19807123] [-1.61002399 -0.42779625] [-1.72014817 -0.37674624] [-1.94039653 -0.35122124] [-2.05052071 -0.65752126] [-2.56443354 -0.81067127] [-2.25241503 -0.70857126] [-2.30747712 -0.98934627] [-2.28912309 -1.09144628] [-2.14229085 -1.14249628] [-2.03216668 -1.27012129] [-1.86698041 -1.37222129] [-1.38977563 -1.21907129] [-0.93092489 -1.19354628] [-0.34359594 -0.98934627] [-0.27017982 -0.78514626] [ 0.11525481 -0.68304626] [ 0.4823354  -0.50437125] [ 0.83106197 -0.19807123] [ 0.86777003 -0.14702123] [ 0.90447809 -0.09597123] [ 0.94118615  0.21032879] [ 0.88612406  0.10822878] [ 1.12472645  0.10822878] [ 0.88612406  0.13375378] [ 1.0329563   0.26137879] [ 1.06966436  0.28690379] [ 1.16143451  0.36347879] [ 0.92283212  0.33795379] [ 0.90447809  0.36347879] [ 0.97789421  0.33795379] [ 0.73929182  0.4911038 ] [ 0.46398137  0.4400538 ] [ 1.14308048  0.26137879] [ 1.28991271  0.15927878] [ 1.16143451  0.        ] [ 1.10637242 -0.14702123] [ 0.83106197 -0.01939623] [ 0.77599988 -0.09597123] [ 0.79435391  0.15927878] [ 0.75764585  0.13375378] [ 0.94118615  0.15927878] [ 0.92283212  0.18480379] [ 0.83106197  0.26137879] [ 0.  0.] [ 0.  0.] [ 0.  0.] [ 0.  0.] [ 0.  0.] [ 0.  0.] [ 0.  0.] [ 0.  0.] [ 0.  0.] [ 0.  0.] [ 0.  0.] [ 0.  0.] [ 0.  0.] [ 0.  0.] [ 0.  0.] [ 0.  0.] [ 0.  0.] [ 0.  0.] [ 0.  0.] [ 0.  0.] [ 0.  0.] [ 0.  0.] [ 0.  0.] [ 0.  0.] [ 0.  0.] [ 0.  0.] [ 0.  0.] [ 0.  0.] [ 0.  0.] [ 0.  0.] [ 0.  0.] [ 0.  0.] [ 0.  0.] [ 0.  0.] [ 0.  0.] [ 0.  0.] [ 0.  0.] [ 0.  0.] [ 0.  0.] [ 0.  0.] [ 0.  0.] [ 0.  0.] [ 0.  0.] [ 0.  0.] [ 0.  0.] [ 0.  0.] [ 0.  0.] [ 0.  0.] [ 0.  0.] [ 0.  0.] [ 0.  0.] [ 0.  0.] [ 0.  0.] [ 0.  0.] [ 0.  0.] [ 0.  0.] [ 0.  0.] [ 0.  0.] [ 0.  0.] [ 0.  0.] [ 0.  0.] [ 0.  0.] [ 0.  0.] [ 0.  0.] [ 0.  0.] [ 0.  0.] [ 0.  0.] [ 0.  0.] [ 0.  0.] [ 0.  0.] [ 0.  0.] [ 0.  0.] [ 0.  0.] [ 0.  0.] [ 0.  0.] [ 0.  0.] [ 0.  0.] [ 0.  0.] [ 0.  0.] [ 0.  0.] [ 0.  0.] [ 0.  0.] [ 0.  0.] [ 0.  0.] [ 0.  0.] [ 0.  0.] [ 0.  0.] [ 0.  0.] [ 0.  0.]
[ 1.19814256  0.4911038 ] [ 1.23485062  0.15927878] [ 2.24432226 -0.73409626] [ 3.40980315 -1.01487128] [ 3.65758255  0.60596631] [ 3.32721002  0.66977881] [ 2.15255211  1.15475383] [ 0.97789421  1.92050387] [ 0.39056525  2.83940392] [ 0.77599988  3.68172896] [ 0.04183869  4.345379  ] [ 0.29879511  2.86492892] [ 0.11525481  1.23132884] [ 0.1703169  -0.14702123] [-0.5087822  -0.22359624] [-0.49042817 -0.19807123] [-0.61890638 -0.27464624] [-0.65561444 -0.37674624] [-1.02269504 -0.37674624] [-1.27965145 -0.45332125] [-1.31635951 -0.58094625] [-1.81191832 -0.60647125] [-1.94039653 -0.78514626] [-2.27076906 -1.04039628] [-2.63784966 -0.93829627] [-2.61949563 -1.21907129] [-2.61949563 -1.39774629] [-2.47266339 -1.37222129] [-2.36253921 -1.34669629] [-1.81191832 -1.62747131] [-1.79356429 -1.37222129] [-0.96763295 -1.37222129] [-0.56384429 -1.24459629] [-0.39865803 -1.04039628] [ 0.09690078 -0.83619627] [ 0.29879511 -0.70857126] [ 0.42727331 -0.42779625] [ 0.59245958 -0.24912124] [ 0.53739749 -0.04492123] [ 0.79435391  0.13375378] [ 0.64752167  0.31242879] [ 0.75764585  0.4400538 ] [ 0.75764585  0.4911038 ] [ 0.81270794  0.84845382] [ 1.17978853  0.77187881] [ 0.90447809  1.02712883] [ 0.95954018  0.95055382] [ 0.99624824  0.87397882] [ 0.90447809  0.95055382] [ 0.59245958  1.07817883] [ 0.79435391  0.79740382] [ 1.21649659  0.66977881] [ 1.25320465  0.3890038 ] [ 1.16143451  0.28690379] [ 0.73929182  0.31242879] [ 0.88612406  0.31242879] [ 0.73929182  0.5166288 ] [ 0.97789421  0.4911038 ] [ 0.99624824  0.5421538 ] [ 0.94118615  0.5676788 ] [ 0.99624824  0.61872881] [ 0.92283212  0.72082881] [ 0.  0.] [ 0.  0.] [ 0.  0.] [ 0.  0.] [ 0.  0.] [ 0.  0.] [ 0.  0.] [ 0.  0.] [ 0.  0.] [ 0.  0.] [ 0.  0.] [ 0.  0.] [ 0.  0.] [ 0.  0.] [ 0.  0.] [ 0.  0.] [ 0.  0.] [ 0.  0.] [ 0.  0.] [ 0.  0.] [ 0.  0.] [ 0.  0.] [ 0.  0.] [ 0.  0.] [ 0.  0.] [ 0.  0.] [ 0.  0.] [ 0.  0.] [ 0.  0.] [ 0.  0.] [ 0.  0.] [ 0.  0.] [ 0.  0.] [ 0.  0.] [ 0.  0.] [ 0.  0.] [ 0.  0.] [ 0.  0.] [ 0.  0.] [ 0.  0.] [ 0.  0.] [ 0.  0.] [ 0.  0.] [ 0.  0.] [ 0.  0.] [ 0.  0.] [ 0.  0.] [ 0.  0.] [ 0.  0.] [ 0.  0.] [ 0.  0.] [ 0.  0.] [ 0.  0.] [ 0.  0.] [ 0.  0.] [ 0.  0.] [ 0.  0.] [ 0.  0.] [ 0.  0.] [ 0.  0.] [ 0.  0.] [ 0.  0.] [ 0.  0.] [ 0.  0.] [ 0.  0.] [ 0.  0.] [ 0.  0.] [ 0.  0.] [ 0.  0.] [ 0.  0.] [ 0.  0.] [ 0.  0.] [ 0.  0.] [ 0.  0.] [ 0.  0.] [ 0.  0.] [ 0.  0.] [ 0.  0.] [ 0.  0.] [ 0.  0.] [ 0.  0.] [ 0.  0.] [ 0.  0.] [ 0.  0.] [ 0.  0.] [ 0.  0.] [ 0.  0.] [ 0.  0.] [ 0.  0.] [ 0.  0.]
[ 0.92283212 -0.12149623] [ 1.12472645 -0.40227124] [ 2.29020734 -1.80614632] [ 3.36391808 -1.19354628] [ 2.18926017  0.4272913 ] [ 1.01460227 -0.17254623] [-0.16005564  0.97607883] [-0.49042817  1.58867886] [-0.28853385  2.5331039 ] [-0.28853385  3.37542895] [-0.56384429  3.40095395] [-0.41701206  1.89497887] [-0.41701206  0.26137879] [-0.71067653 -0.86172127] [-1.84862638 -0.75962126] [-1.16952728 -1.04039628] [-1.88533444 -0.86172127] [-1.90368847 -0.91277127] [-1.72014817 -1.14249628] [-1.77521026 -1.06592128] [-2.58278757 -1.06592128] [-2.54607951 -1.14249628] [-2.63784966 -1.29564629] [-2.82138996 -1.4487963 ] [-2.72961981 -1.5253713 ] [-2.65620369 -1.5508963 ] [-2.71126578 -1.80614632] [-2.93151413 -1.98482132] [-2.27076906 -1.88272132] [-2.45430936 -2.06139633] [-1.83027235 -2.03587133] [-1.20623534 -1.90824632] [-1.3714216  -1.78062131] [-0.25182579 -1.78062131] [-0.36194997 -1.5764213 ] [-0.04993146 -1.4743213 ] [-0.14170161 -1.01487128] [ 0.849416   -0.93829627] [ 0.44562734 -0.83619627] [ 0.6658757  -0.47884625] [ 0.94118615 -0.55542125] [ 0.55575152 -0.60647125] [ 1.05131033 -0.32569624] [ 0.81270794 -0.35122124] [ 0.62916764 -0.22359624] [ 0.97789421 -0.24912124] [ 0.68422973 -0.14702123] [ 0.95954018 -0.22359624] [ 0.59245958 -0.19807123] [ 0.97789421 -0.12149623] [ 1.17978853 -0.19807123] [ 1.17978853 -0.12149623] [ 0.86777003 -0.14702123] [ 0.99624824 -0.12149623] [ 1.49180704 -0.09597123] [ 1.32662077 -0.07044623] [ 1.17978853 -0.19807123] [ 1.3449748  -0.14702123] [ 1.16143451 -0.09597123] [ 0.88612406 -0.14702123] [ 0.95954018 -0.12149623] [ 0.83106197 -0.09597123] [ 1.17978853 -0.12149623] [ 0.73929182 -0.07044623] [ 0.79435391  0.        ] [ 0.81270794 -0.01939623] [ 0.55575152 -0.01939623] [ 0.92283212  0.18480379] [ 0.6658757   0.13375378] [ 0.53739749  0.31242879] [ 0.37221122  0.4145288 ] [ 0.73929182 -0.17254623] [ 0.75764585 -0.14702123] [ 0.849416   -0.32569624] [ 0.39056525 -0.24912124] [ 0.33550317 -0.22359624] [ 0.26208705 -0.04492123] [ 0.40891928 -0.12149623] [ 0.51904346  0.10822878] [ 0.  0.] [ 0.  0.] [ 0.  0.] [ 0.  0.] [ 0.  0.] [ 0.  0.] [ 0.  0.] [ 0.  0.] [ 0.  0.] [ 0.  0.] [ 0.  0.] [ 0.  0.] [ 0.  0.] [ 0.  0.] [ 0.  0.] [ 0.  0.] [ 0.  0.] [ 0.  0.] [ 0.  0.] [ 0.  0.] [ 0.  0.] [ 0.  0.] [ 0.  0.] [ 0.  0.] [ 0.  0.] [ 0.  0.] [ 0.  0.] [ 0.  0.] [ 0.  0.] [ 0.  0.] [ 0.  0.] [ 0.  0.] [ 0.  0.] [ 0.  0.] [ 0.  0.] [ 0.  0.] [ 0.  0.] [ 0.  0.] [ 0.  0.] [ 0.  0.] [ 0.  0.] [ 0.  0.] [ 0.  0.] [ 0.  0.] [ 0.  0.] [ 0.  0.] [ 0.  0.] [ 0.  0.] [ 0.  0.] [ 0.  0.] [ 0.  0.] [ 0.  0.] [ 0.  0.] [ 0.  0.] [ 0.  0.] [ 0.  0.] [ 0.  0.] [ 0.  0.] [ 0.  0.] [ 0.  0.] [ 0.  0.] [ 0.  0.] [ 0.  0.] [ 0.  0.] [ 0.  0.] [ 0.  0.] [ 0.  0.] [ 0.  0.] [ 0.  0.] [ 0.  0.] [ 0.  0.] [ 0.  0.] [ 0.  0.]
[ 0.42727331  0.4145288 ] [ 0.86777003  0.13375378] [ 2.03325092 -0.93829627] [ 3.19873181 -0.73409626] [ 2.53798674  0.88674132] [ 1.56522316  0.64425381] [ 0.39056525  1.38447885] [-0.08663952  2.02260388] [-0.17840967  2.73730391] [-0.21511773  3.52857895] [-0.6923225   3.78382897] [-0.10499355  2.32890389] [-0.5087822   0.69530381] [-1.07775713 -0.22359624] [-1.3714216  -0.30017124] [-1.53660787 -0.30017124] [-1.64673205 -0.42779625] [-1.51825384 -0.35122124] [-1.5549619  -0.35122124] [-1.70179414 -0.63199626] [-2.05052071 -0.50437125] [-2.12393682 -0.63199626] [-1.94039653 -0.75962126] [-2.34418518 -0.83619627] [-2.17899891 -0.93829627] [-2.47266339 -1.4232713 ] [-2.72961981 -1.39774629] [-2.45430936 -1.29564629] [-2.08722876 -1.4487963 ] [-1.81191832 -1.65299631] [-1.57331593 -1.5253713 ] [-1.15117325 -1.4232713 ] [-0.63726041 -1.27012129] [-0.1967637  -1.09144628] [ 0.11525481 -0.91277127] [ 0.46398137 -0.70857126] [ 0.59245958 -0.47884625] [ 0.75764585 -0.32569624] [ 0.83106197 -0.07044623] [ 1.14308048  0.08270378] [ 1.01460227  0.15927878] [ 1.10637242  0.26137879] [ 1.14308048  0.4145288 ] [ 0.90447809  0.4145288 ] [ 1.01460227  0.4145288 ] [ 0.849416   0.4400538] [ 0.79435391  0.4145288 ] [ 0.79435391  0.33795379] [ 0.73929182  0.3890038 ] [ 0.75764585  0.31242879] [ 0.77599988  0.31242879] [ 0.75764585  0.31242879] [ 0.86777003  0.21032879] [ 0.849416    0.26137879] [ 0.99624824  0.31242879] [ 0.92283212  0.33795379] [ 1.0329563   0.28690379] [ 1.05131033  0.5421538 ] [ 1.3449748   0.66977881] [ 1.36332883  0.92502882] [ 1.43674495  0.82292882] [ 1.85888764  0.77187881] [ 1.82217958  0.4911038 ] [ 1.84053361  0.31242879] [ 1.49180704  0.23585379] [ 1.27155868  0.08270378] [ 0.99624824 -0.04492123] [ 0.6658757   0.08270378] [ 0.88612406  0.15927878] [ 0.94118615  0.        ] [ 0.77599988  0.21032879] [ 0.53739749  0.13375378] [ 0.46398137  0.10822878] [ 0.24373302  0.13375378] [ 0.51904346  0.23585379] [ 0.44562734  0.21032879] [-0.03157743  0.33795379] [ 0.62916764  0.5676788 ] [ 0.  0.] [ 0.  0.] [ 0.  0.] [ 0.  0.] [ 0.  0.] [ 0.  0.] [ 0.  0.] [ 0.  0.] [ 0.  0.] [ 0.  0.] [ 0.  0.] [ 0.  0.] [ 0.  0.] [ 0.  0.] [ 0.  0.] [ 0.  0.] [ 0.  0.] [ 0.  0.] [ 0.  0.] [ 0.  0.] [ 0.  0.] [ 0.  0.] [ 0.  0.] [ 0.  0.] [ 0.  0.] [ 0.  0.] [ 0.  0.] [ 0.  0.] [ 0.  0.] [ 0.  0.] [ 0.  0.] [ 0.  0.] [ 0.  0.] [ 0.  0.] [ 0.  0.] [ 0.  0.] [ 0.  0.] [ 0.  0.] [ 0.  0.] [ 0.  0.] [ 0.  0.] [ 0.  0.] [ 0.  0.] [ 0.  0.] [ 0.  0.] [ 0.  0.] [ 0.  0.] [ 0.  0.] [ 0.  0.] [ 0.  0.] [ 0.  0.] [ 0.  0.] [ 0.  0.] [ 0.  0.] [ 0.  0.] [ 0.  0.] [ 0.  0.] [ 0.  0.] [ 0.  0.] [ 0.  0.] [ 0.  0.] [ 0.  0.] [ 0.  0.] [ 0.  0.] [ 0.  0.] [ 0.  0.] [ 0.  0.] [ 0.  0.] [ 0.  0.] [ 0.  0.] [ 0.  0.] [ 0.  0.] [ 0.  0.] [ 0.  0.]
[ 0.92283212  0.        ] [ 2.08831301 -1.60194631] [ 3.2537939  -2.26559634] [ 2.35444644 -0.64475876] [ 1.17978853  0.97607883] [ 0.00513063 -0.22359624] [-1.16952728 -0.01939623] [-1.26129742  0.05717878] [-1.27965145  0.08270378] [-1.59166996  0.08270378] [-1.33471354  0.13375378] [-1.57331593  0.21032879] [-1.44483772  0.26137879] [-1.26129742  0.28690379] [-1.42648369  0.36347879] [-1.35306757  0.23585379] [-1.3714216   0.33795379] [-2.03216668  0.13375378] [-1.44483772  0.13375378] [-2.34418518  0.15927878] [-2.21570697  0.23585379] [-2.28912309  0.10822878] [-2.49101742  0.05717878] [-2.82138996 -0.12149623] [-2.54607951 -0.07044623] [-2.69291175 -0.14702123] [-2.34418518 -0.14702123] [-1.97710459 -0.12149623] [-1.84862638  0.05717878] [-1.2429434  -0.30017124] [-0.65561444  0.10822878] [-0.71067653 -0.01939623] [-0.43536609 -0.04492123] [ 0.04183869  0.00612878] [ 0.09690078  0.13375378] [-0.12334758  0.        ] [ 0.40891928  0.        ] [ 0.11525481  0.18480379] [ 0.11525481  0.05717878] [ 0.  0.] [ 0.  0.] [ 0.  0.] [ 0.  0.] [ 0.  0.] [ 0.  0.] [ 0.  0.] [ 0.  0.] [ 0.  0.] [ 0.  0.] [ 0.  0.] [ 0.  0.] [ 0.  0.] [ 0.  0.] [ 0.  0.] [ 0.  0.] [ 0.  0.] [ 0.  0.] [ 0.  0.] [ 0.  0.] [ 0.  0.] [ 0.  0.] [ 0.  0.] [ 0.  0.] [ 0.  0.] [ 0.  0.] [ 0.  0.] [ 0.  0.] [ 0.  0.] [ 0.  0.] [ 0.  0.] [ 0.  0.] [ 0.  0.] [ 0.  0.] [ 0.  0.] [ 0.  0.] [ 0.  0.] [ 0.  0.] [ 0.  0.] [ 0.  0.] [ 0.  0.] [ 0.  0.] [ 0.  0.] [ 0.  0.] [ 0.  0.] [ 0.  0.] [ 0.  0.] [ 0.  0.] [ 0.  0.] [ 0.  0.] [ 0.  0.] [ 0.  0.] [ 0.  0.] [ 0.  0.] [ 0.  0.] [ 0.  0.] [ 0.  0.] [ 0.  0.] [ 0.  0.] [ 0.  0.] [ 0.  0.] [ 0.  0.] [ 0.  0.] [ 0.  0.] [ 0.  0.] [ 0.  0.] [ 0.  0.] [ 0.  0.] [ 0.  0.] [ 0.  0.] [ 0.  0.] [ 0.  0.] [ 0.  0.] [ 0.  0.] [ 0.  0.] [ 0.  0.] [ 0.  0.] [ 0.  0.] [ 0.  0.] [ 0.  0.] [ 0.  0.] [ 0.  0.] [ 0.  0.] [ 0.  0.] [ 0.  0.] [ 0.  0.] [ 0.  0.] [ 0.  0.] [ 0.  0.] [ 0.  0.] [ 0.  0.] [ 0.  0.] [ 0.  0.] [ 0.  0.] [ 0.  0.] [ 0.  0.] [ 0.  0.] [ 0.  0.] [ 0.  0.] [ 0.  0.] [ 0.  0.] [ 0.  0.] [ 0.  0.] [ 0.  0.] [ 0.  0.] [ 0.  0.] [ 0.  0.] [ 0.  0.] [ 0.  0.] [ 0.  0.] [ 0.  0.] [ 0.  0.] [ 0.  0.]
[-0.52713623  4.21775399] [-0.96763295  5.18770404] [-1.64673205  4.90692902] [-1.5549619   3.27332894] [-0.76573862  1.63972886] [-0.91257086  0.5166288 ] [-1.07775713  0.31242879] [-1.44483772  0.87397882] [-1.18788131  0.10822878] [-1.26129742  0.4145288 ] [-1.18788131  0.4145288 ] [-1.57331593  0.28690379] [-1.64673205  0.13375378] [-1.84862638  0.21032879] [-1.94039653 -0.14702123] [-2.54607951 -0.17254623] [-2.10558279 -0.12149623] [-2.56443354 -0.32569624] [-2.52772548 -0.42779625] [-2.50937145 -0.63199626] [-2.06887473 -0.70857126] [-1.88533444 -0.81067127] [-1.46319175 -0.96382127] [-1.02269504 -1.16802128] [-0.93092489 -0.24912124] [ 0.234556   -0.55542125] [-0.32524191 -0.22359624] [ 0.28044108 -0.14702123] [ 0.31714914 -0.01939623] [ 0.37221122  0.23585379] [ 0.50068943  0.4145288 ] [ 0.39056525  0.4911038 ] [ 0.44562734  0.87397882] [ 0.3538572   0.72082881] [ 0.46398137  1.02712883] [ 0.46398137  0.84845382] [ 0.3538572   0.95055382] [ 0.40891928  0.59320381] [ 0.11525481  0.95055382] [ 1.06966436  1.15475383] [ 0.29879511  1.07817883] [ 0.42727331  0.97607883] [ 0.29879511  0.97607883] [ 0.51904346  0.87397882] [ 0.44562734  1.07817883] [ 0.75764585  0.82292882] [-0.03157743  0.84845382] [ 0.70258376  0.95055382] [ 0.28044108  0.87397882] [ 0.26208705  0.77187881] [ 0.15196287  0.66977881] [ 0.26208705  0.79740382] [ 0.11525481  0.74635381] [ 0.02348466  0.4911038 ] [ 0.29879511  0.89950382] [ 0.39056525  0.77187881] [-0.16005564  0.64425381] [ 0.39056525  0.72082881] [ 0.22537899  1.18027884] [ 0.29879511  1.07817883] [ 0.29879511  1.56315385] [ 0.79435391  1.07817883] [ 0.61081361  0.82292882] [ 0.4823354   0.59320381] [ 0.42727331  0.3890038 ] [ 0.37221122  0.5676788 ] [ 0.04183869  0.28690379] [ 0.02348466  0.21032879] [-0.03157743  0.28690379] [ 0.13360884  0.23585379] [ 0.11525481  0.31242879] [-0.16005564  0.4655788 ] [ 0.26208705  0.4655788 ] [-0.16005564  0.13375378] [-0.45372011  0.4145288 ] [ 0.71176078  0.59320381] [-0.41701206  0.72082881] [ 0.09690078  0.77187881] [ 0.1703169   0.84845382] [ 1.33579779 -0.78514626] [ 2.3911545  -2.18902133] [ 1.96901182 -0.56818375] [ 1.49180704  1.05265383] [ 0.31714914  0.74635381] [-0.85750877  1.97155388] [-1.48154578  2.81387892] [ 0.  0.] [ 0.  0.] [ 0.  0.] [ 0.  0.] [ 0.  0.] [ 0.  0.] [ 0.  0.] [ 0.  0.] [ 0.  0.] [ 0.  0.] [ 0.  0.] [ 0.  0.] [ 0.  0.] [ 0.  0.] [ 0.  0.] [ 0.  0.] [ 0.  0.] [ 0.  0.] [ 0.  0.] [ 0.  0.] [ 0.  0.] [ 0.  0.] [ 0.  0.] [ 0.  0.] [ 0.  0.] [ 0.  0.] [ 0.  0.] [ 0.  0.] [ 0.  0.] [ 0.  0.] [ 0.  0.] [ 0.  0.] [ 0.  0.] [ 0.  0.] [ 0.  0.] [ 0.  0.] [ 0.  0.] [ 0.  0.] [ 0.  0.] [ 0.  0.] [ 0.  0.] [ 0.  0.] [ 0.  0.] [ 0.  0.] [ 0.  0.] [ 0.  0.] [ 0.  0.] [ 0.  0.] [ 0.  0.] [ 0.  0.] [ 0.  0.] [ 0.  0.] [ 0.  0.] [ 0.  0.] [ 0.  0.] [ 0.  0.] [ 0.  0.] [ 0.  0.] [ 0.  0.] [ 0.  0.] [ 0.  0.] [ 0.  0.] [ 0.  0.] [ 0.  0.] [ 0.  0.] [ 0.  0.]
[-1.13281922  2.76282892] [-0.78409265  3.93697897] [-1.0594031   3.86040397] [-0.96763295  2.22680389] [-0.52713623  0.59320381] [-1.11446519 -0.17254623] [-1.00434101 -0.50437125] [-1.3714216  -0.32569624] [-1.2429434  -0.47884625] [-1.48154578 -0.60647125] [-1.46319175 -0.47884625] [-1.66508608 -0.32569624] [-1.7385022  -0.65752126] [-1.81191832 -0.58094625] [-2.10558279 -0.65752126] [-2.12393682 -0.73409626] [-2.28912309 -0.93829627] [-2.6011416  -1.04039628] [-2.234061   -1.24459629] [-2.05052071 -1.27012129] [-2.39924727 -1.4487963 ] [-1.90368847 -1.4487963 ] [-1.27965145 -1.65299631] [-1.35306757 -1.4998463 ] [-0.72903056 -1.65299631] [-0.39865803 -1.4743213 ] [ 0.18867093 -1.09144628] [ 0.59245958 -1.16802128] [ 0.79435391 -0.83619627] [ 0.94118615 -0.91277127] [ 0.88612406 -0.83619627] [ 0.88612406 -0.73409626] [ 1.40003689 -0.58094625] [ 1.21649659 -0.32569624] [ 1.40003689 -0.50437125] [ 1.23485062 -0.32569624] [ 1.36332883 -0.32569624] [ 1.30826674 -0.30017124] [ 1.27155868 -0.37674624] [ 1.45509898 -0.32569624] [ 1.38168286 -0.37674624] [ 1.23485062 -0.19807123] [ 1.41839092 -0.14702123] [ 1.54686913 -0.32569624] [ 1.49180704 -0.12149623] [ 1.56522316 -0.24912124] [ 1.51016107 -0.30017124] [ 1.67534734  0.00612878] [ 1.74876346 -0.01939623] [ 1.7120554   0.28690379] [ 1.82217958  0.21032879] [ 1.85888764  0.21032879] [ 2.00571987 -0.17254623] [ 1.93230376 -0.37674624] [ 1.47345301 -0.55542125] [ 1.30826674 -0.52989625] [ 1.25320465 -0.55542125] [ 1.01460227 -0.58094625] [ 1.0329563  -0.52989625] [ 1.06966436 -0.52989625] [ 1.01460227 -0.40227124] [ 0.90447809 -0.40227124] [ 0.95954018 -0.42779625] [ 0.86777003 -0.45332125] [ 0.86777003 -0.40227124] [ 0.90447809 -0.37674624] [ 0.86777003 -0.40227124] [ 0.92283212 -0.07044623] [ 1.01460227 -0.24912124] [ 1.54686913 -0.47884625] [ 2.62975689 -1.85719632] [ 3.67593658 -1.5508963 ] [ 2.7582351   0.06994128] [ 1.58357719 -0.12149623] [ 0.40891928  1.02712883] [-0.32524191  1.86945387] [ 0.  0.] [ 0.  0.] [ 0.  0.] [ 0.  0.] [ 0.  0.] [ 0.  0.] [ 0.  0.] [ 0.  0.] [ 0.  0.] [ 0.  0.] [ 0.  0.] [ 0.  0.] [ 0.  0.] [ 0.  0.] [ 0.  0.] [ 0.  0.] [ 0.  0.] [ 0.  0.] [ 0.  0.] [ 0.  0.] [ 0.  0.] [ 0.  0.] [ 0.  0.] [ 0.  0.] [ 0.  0.] [ 0.  0.] [ 0.  0.] [ 0.  0.] [ 0.  0.] [ 0.  0.] [ 0.  0.] [ 0.  0.] [ 0.  0.] [ 0.  0.] [ 0.  0.] [ 0.  0.] [ 0.  0.] [ 0.  0.] [ 0.  0.] [ 0.  0.] [ 0.  0.] [ 0.  0.] [ 0.  0.] [ 0.  0.] [ 0.  0.] [ 0.  0.] [ 0.  0.] [ 0.  0.] [ 0.  0.] [ 0.  0.] [ 0.  0.] [ 0.  0.] [ 0.  0.] [ 0.  0.] [ 0.  0.] [ 0.  0.] [ 0.  0.] [ 0.  0.] [ 0.  0.] [ 0.  0.] [ 0.  0.] [ 0.  0.] [ 0.  0.] [ 0.  0.] [ 0.  0.] [ 0.  0.] [ 0.  0.] [ 0.  0.] [ 0.  0.] [ 0.  0.] [ 0.  0.] [ 0.  0.] [ 0.  0.] [ 0.  0.] [ 0.  0.] [ 0.  0.]
[-0.34359594  2.99255393] [-1.2429434   1.71630386] [-2.17899891  0.08270378] [-1.01351802 -0.07044623] [-1.07775713  0.08270378] [-0.74738459 -0.12149623] [-1.44483772 -0.01939623] [-1.40812966  0.13375378] [-1.35306757  0.08270378] [-1.61002399  0.15927878] [-1.90368847  0.13375378] [-1.90368847  0.08270378] [-2.08722876  0.10822878] [-2.34418518  0.08270378] [-2.56443354 -0.04492123] [-2.82138996 -0.27464624] [-2.85809802 -0.22359624] [-2.61949563 -0.45332125] [-2.6011416  -0.50437125] [-2.27076906 -0.60647125] [-2.06887473 -0.70857126] [-1.62837802 -1.04039628] [-1.70179414 -0.81067127] [-1.04104907 -0.75962126] [-0.47207414 -0.65752126] [-0.34359594 -0.45332125] [-0.06828549 -0.42779625] [-0.10499355 -0.09597123] [ 0.39056525 -0.07044623] [ 0.31714914  0.00612878] [ 0.31714914  0.00612878] [ 0.04183869  0.05717878] [ 0.15196287  0.21032879] [ 0.33550317  0.21032879] [ 0.1703169   0.33795379] [ 0.20702496  0.3890038 ] [ 0.09690078  0.4400538 ] [ 0.28044108  0.15927878] [ 0.28044108 -0.09597123] [ 0.26208705 -0.01939623] [ 0.33550317 -0.01939623] [ 0.09690078 -0.04492123] [ 0.00513063 -0.12149623] [ 0.11525481 -0.04492123] [ 0.00513063  0.08270378] [ 0.37221122  0.08270378] [ 0.29879511  0.00612878] [ 0.28044108  0.18480379] [ 0.  0.] [ 0.  0.] [ 0.  0.] [ 0.  0.] [ 0.  0.] [ 0.  0.] [ 0.  0.] [ 0.  0.] [ 0.  0.] [ 0.  0.] [ 0.  0.] [ 0.  0.] [ 0.  0.] [ 0.  0.] [ 0.  0.] [ 0.  0.] [ 0.  0.] [ 0.  0.] [ 0.  0.] [ 0.  0.] [ 0.  0.] [ 0.  0.] [ 0.  0.] [ 0.  0.] [ 0.  0.] [ 0.  0.] [ 0.  0.] [ 0.  0.] [ 0.  0.] [ 0.  0.] [ 0.  0.] [ 0.  0.] [ 0.  0.] [ 0.  0.] [ 0.  0.] [ 0.  0.] [ 0.  0.] [ 0.  0.] [ 0.  0.] [ 0.  0.] [ 0.  0.] [ 0.  0.] [ 0.  0.] [ 0.  0.] [ 0.  0.] [ 0.  0.] [ 0.  0.] [ 0.  0.] [ 0.  0.] [ 0.  0.] [ 0.  0.] [ 0.  0.] [ 0.  0.] [ 0.  0.] [ 0.  0.] [ 0.  0.] [ 0.  0.] [ 0.  0.] [ 0.  0.] [ 0.  0.] [ 0.  0.] [ 0.  0.] [ 0.  0.] [ 0.  0.] [ 0.  0.] [ 0.  0.] [ 0.  0.] [ 0.  0.] [ 0.  0.] [ 0.  0.] [ 0.  0.] [ 0.  0.] [ 0.  0.] [ 0.  0.] [ 0.  0.] [ 0.  0.] [ 0.  0.] [ 0.  0.] [ 0.  0.] [ 0.  0.] [ 0.  0.] [ 0.  0.] [ 0.  0.] [ 0.  0.] [ 0.  0.] [ 0.  0.] [ 0.  0.] [ 0.  0.] [ 0.  0.] [ 0.  0.] [ 0.  0.] [ 0.  0.] [ 0.  0.] [ 0.  0.] [ 0.  0.] [ 0.  0.] [ 0.  0.] [ 0.  0.] [ 0.  0.] [ 0.  0.] [ 0.  0.] [ 0.  0.] [ 0.  0.] [ 0.  0.]
[ 0.95954018  0.10822878] [ 0.81270794  0.        ] [ 1.97818883 -1.19354628] [ 3.14366972 -0.70857126] [ 2.3911545   0.91226632] [ 1.21649659  0.61872881] [ 0.04183869  1.66525386] [ 0.70258376  2.27785389] [ 0.51904346  3.22227894] [ 0.09690078  4.11565398] [-0.10499355  3.73277896] [-0.32524191  2.09917888] [ 0.02348466  0.4655788 ] [-0.80244668 -0.22359624] [-0.63726041 -0.30017124] [-0.76573862 -0.47884625] [-0.94927892 -0.37674624] [-1.00434101 -0.47884625] [-1.15117325 -0.58094625] [-1.42648369 -0.37674624] [-1.59166996 -0.63199626] [-1.9220425  -0.73409626] [-2.08722876 -0.75962126] [-2.36253921 -0.91277127] [-2.67455772 -1.19354628] [-2.74797384 -1.34669629] [-2.67455772 -1.5508963 ] [-2.71126578 -1.5508963 ] [-2.63784966 -1.65299631] [-2.19735294 -1.67852131] [-1.81191832 -1.60194631] [-1.38977563 -1.5253713 ] [-1.02269504 -1.34669629] [-0.5087822  -1.06592128] [-0.16005564 -0.83619627] [-0.16005564 -0.65752126] [ 0.31714914 -0.42779625] [ 0.4823354  -0.19807123] [ 0.61081361 -0.09597123] [ 0.22537899  0.00612878] [ 0.46398137  0.21032879] [ 0.26208705  0.26137879] [ 0.39056525  0.36347879] [ 0.31714914  0.3890038 ] [ 0.33550317  0.4145288 ] [ 0.24373302  0.4400538 ] [ 0.50068943  0.4911038 ] [ 0.26208705  0.5421538 ] [ 0.59245958  0.36347879] [ 0.53739749  0.5166288 ] [ 0.57410555  0.5166288 ] [ 0.53739749  0.36347879] [ 0.20702496  0.4655788 ] [ 0.57410555  0.21032879] [ 0.29879511  0.28690379] [ 0.53739749  0.15927878] [ 0.37221122  0.21032879] [ 0.1703169   0.10822878] [ 0.22537899  0.15927878] [ 0.51904346  0.13375378] [ 0.26208705 -0.01939623] [ 0.20702496  0.08270378] [ 0.24373302 -0.04492123] [ 0.22537899  0.05717878] [ 0.46398137 -0.12149623] [ 0.13360884 -0.07044623] [ 0.26208705 -0.09597123] [ 0.18867093 -0.09597123] [ 0.00513063 -0.14702123] [ 0.11525481 -0.19807123] [ 0.15196287 -0.14702123] [-0.12334758 -0.24912124] [ 0.1703169  -0.27464624] [ 0.13360884 -0.12149623] [ 0.15196287 -0.24912124] [ 0.04183869 -0.19807123] [-0.23347176 -0.04492123] [ 0.46398137 -0.07044623] [ 0.13360884 -0.09597123] [ 0.13360884 -0.04492123] [ 0.06019272 -0.04492123] [ 0.28044108 -0.14702123] [ 0.20702496  0.28690379] [ 0.20702496  0.4145288 ] [ 0.50068943  0.26137879] [ 0.26208705  0.15927878] [ 0.55575152 -0.27464624] [ 0.53739749 -0.32569624] [ 0.29879511 -0.27464624] [ 0.40891928 -0.14702123] [ 0.3538572  -0.24912124] [ 0.44562734 -0.35122124] [ 0.28044108 -0.24912124] [ 0.24373302 -0.01939623] [ 0.44562734  0.        ] [ 0.70258376 -0.09597123] [ 0.  0.] [ 0.  0.] [ 0.  0.] [ 0.  0.] [ 0.  0.] [ 0.  0.] [ 0.  0.] [ 0.  0.] [ 0.  0.] [ 0.  0.] [ 0.  0.] [ 0.  0.] [ 0.  0.] [ 0.  0.] [ 0.  0.] [ 0.  0.] [ 0.  0.] [ 0.  0.] [ 0.  0.] [ 0.  0.] [ 0.  0.] [ 0.  0.] [ 0.  0.] [ 0.  0.] [ 0.  0.] [ 0.  0.] [ 0.  0.] [ 0.  0.] [ 0.  0.] [ 0.  0.] [ 0.  0.] [ 0.  0.] [ 0.  0.] [ 0.  0.] [ 0.  0.] [ 0.  0.] [ 0.  0.] [ 0.  0.] [ 0.  0.] [ 0.  0.] [ 0.  0.] [ 0.  0.] [ 0.  0.] [ 0.  0.] [ 0.  0.] [ 0.  0.] [ 0.  0.] [ 0.  0.] [ 0.  0.] [ 0.  0.] [ 0.  0.] [ 0.  0.] [ 0.  0.] [ 0.  0.] [ 0.  0.] [ 0.  0.]
[ 1.06966436 -0.17254623] [ 1.54686913 -1.21907129] [ 2.71235002 -1.29564629] [ 2.13419808  0.32519129] [ 1.43674495  0.5166288 ] [ 0.26208705  1.46105385] [-0.5087822  2.4820539] [ 0.00513063  3.14570393] [-0.89421683  4.447479  ] [-1.04104907  4.57510401] [-0.6923225   2.94150392] [-0.71067653  1.30790384] [-1.26129742 -0.12149623] [-1.29800548 -0.65752126] [-1.3714216  -0.58094625] [-1.35306757 -0.52989625] [-1.22458937 -0.63199626] [-1.49989981 -0.58094625] [-1.59166996 -0.60647125] [-1.79356429 -0.73409626] [-1.68344011 -0.68304626] [-2.01381265 -0.91277127] [-2.03216668 -1.24459629] [-2.67455772 -1.16802128] [-2.63784966 -1.5508963 ] [-2.65620369 -1.5253713 ] [-2.36253921 -1.60194631] [-2.83974399 -1.93377132] [-2.03216668 -2.13797133] [-1.57331593 -2.13797133] [-1.88533444 -2.11244633] [-0.76573862 -2.13797133] [-0.67396847 -1.95929632] [-0.60055235 -1.85719632] [ 0.06019272 -1.72957131] [ 0.13360884 -1.32117129] [ 0.04183869 -1.09144628] [ 0.1703169  -0.98934627] [ 0.64752167 -0.88724627] [ 0.50068943 -0.63199626] [ 0.18867093 -0.40227124] [ 0.68422973 -0.45332125] [ 0.46398137 -0.35122124] [ 0.42727331 -0.24912124] [ 0.57410555 -0.22359624] [ 0.70258376 -0.22359624] [ 0.75764585 -0.12149623] [ 0.68422973 -0.30017124] [ 0.88612406 -0.17254623] [ 0.95954018 -0.27464624] [ 0.92283212 -0.37674624] [ 1.08801839 -0.12149623] [ 1.30826674 -0.40227124] [ 1.08801839 -0.12149623] [ 1.08801839 -0.12149623] [ 1.32662077 -0.35122124] [ 1.16143451 -0.27464624] [ 1.27155868 -0.50437125] [ 1.06966436 -0.24912124] [ 1.12472645 -0.30017124] [ 0.72093779 -0.32569624] [ 1.14308048 -0.37674624] [ 1.30826674 -0.42779625] [ 0.70258376 -0.30017124] [ 1.06966436 -0.55542125] [ 0.86777003 -0.37674624] [ 1.16143451 -0.52989625] [ 0.51904346 -0.47884625] [ 1.16143451 -0.37674624] [ 0.73929182 -0.37674624] [ 1.05131033 -0.60647125] [ 0.68422973 -0.45332125] [ 0.92283212 -0.45332125] [ 0.72093779 -0.37674624] [ 1.01460227 -0.42779625] [ 0.72093779 -0.50437125] [ 0.88612406 -0.47884625] [ 0.88612406 -0.45332125] [ 0.88612406 -0.37674624] [ 0.88612406 -0.52989625] [ 0.94118615 -0.45332125] [ 0.97789421 -0.50437125] [ 0.72093779 -0.35122124] [ 0.90447809 -0.17254623] [ 1.30826674 -0.32569624] [ 1.08801839  0.18480379] [ 1.32662077  0.10822878] [ 1.08801839 -0.09597123] [ 0.97789421 -0.32569624] [ 1.14308048 -0.63199626] [ 0.68422973 -0.42779625] [ 0.77599988 -0.55542125] [ 0.88612406 -0.50437125] [ 0.62916764 -0.60647125] [ 0.70258376 -0.50437125] [ 0.4823354  -0.30017124] [ 0.92283212 -0.32569624] [ 0.86777003 -0.37674624] [ 0.73929182 -0.42779625] [ 0.6658757  -0.55542125] [ 0.02348466 -0.45332125] [ 0.81270794 -0.40227124] [ 0.6658757   0.13375378] [ 0.75764585 -0.27464624] [ 0.  0.] [ 0.  0.] [ 0.  0.] [ 0.  0.] [ 0.  0.] [ 0.  0.] [ 0.  0.] [ 0.  0.] [ 0.  0.] [ 0.  0.] [ 0.  0.] [ 0.  0.] [ 0.  0.] [ 0.  0.] [ 0.  0.] [ 0.  0.] [ 0.  0.] [ 0.  0.] [ 0.  0.] [ 0.  0.] [ 0.  0.] [ 0.  0.] [ 0.  0.] [ 0.  0.] [ 0.  0.] [ 0.  0.] [ 0.  0.] [ 0.  0.] [ 0.  0.] [ 0.  0.] [ 0.  0.] [ 0.  0.] [ 0.  0.] [ 0.  0.] [ 0.  0.] [ 0.  0.] [ 0.  0.] [ 0.  0.] [ 0.  0.] [ 0.  0.] [ 0.  0.] [ 0.  0.] [ 0.  0.] [ 0.  0.] [ 0.  0.] [ 0.  0.] [ 0.  0.] [ 0.  0.]
[ 2.06078196  2.68625391] [ 2.17090614  3.27332894] [ 1.23485062  3.68172896] [ 1.82217958  2.5331039 ] [ 0.99624824  0.89950382] [-0.17840967 -0.30017124] [-0.52713623 -0.32569624] [-0.8758628  -0.37674624] [-0.6923225  -0.47884625] [-0.98598698 -0.45332125] [-0.98598698 -0.47884625] [-1.22458937 -0.42779625] [-1.18788131 -0.37674624] [-1.18788131 -0.42779625] [-1.35306757 -0.40227124] [-1.59166996 -0.50437125] [-1.51825384 -0.40227124] [-1.5549619  -0.42779625] [-1.64673205 -0.55542125] [-1.7385022  -0.60647125] [-1.81191832 -0.83619627] [-1.86698041 -0.91277127] [-1.77521026 -1.04039628] [-1.59166996 -1.21907129] [-1.40812966 -1.21907129] [-0.85750877 -1.32117129] [-0.83915474 -1.39774629] [-0.30688788 -1.32117129] [ 0.15196287 -1.21907129] [ 0.50068943 -1.16802128] [ 0.59245958 -1.04039628] [ 0.92283212 -0.86172127] [ 1.12472645 -0.65752126] [ 1.23485062 -0.50437125] [ 1.08801839 -0.45332125] [ 1.30826674 -0.40227124] [ 1.23485062 -0.19807123] [ 1.16143451 -0.27464624] [ 1.25320465 -0.17254623] [ 1.17978853 -0.22359624] [ 1.19814256 -0.07044623] [ 1.10637242 -0.24912124] [ 1.08801839 -0.19807123] [ 1.14308048 -0.19807123] [ 1.17978853 -0.12149623] [ 1.08801839 -0.12149623] [ 1.12472645 -0.17254623] [ 1.05131033 -0.12149623] [ 1.19814256 -0.04492123] [ 1.01460227 -0.17254623] [ 1.0329563  -0.22359624] [ 1.06966436 -0.04492123] [ 1.0329563  -0.14702123] [ 1.10637242 -0.14702123] [ 0.97789421 -0.12149623] [ 1.0329563  -0.19807123] [ 1.06966436 -0.19807123] [ 0.94118615 -0.19807123] [ 0.90447809 -0.14702123] [ 1.05131033 -0.19807123] [ 0.94118615 -0.19807123] [ 0.99624824 -0.27464624] [ 0.86777003 -0.27464624] [ 0.99624824 -0.19807123] [ 0.97789421 -0.09597123] [ 1.25320465  0.00612878] [ 1.23485062  0.23585379] [ 1.38168286  0.13375378] [ 1.23485062  0.        ] [ 1.25320465 -0.12149623] [ 0.94118615 -0.45332125] [ 0.86777003 -0.42779625] [ 0.81270794 -0.32569624] [ 0.86777003 -0.37674624] [ 0.59245958 -0.50437125] [ 0.68422973 -0.40227124] [ 0.75764585 -0.27464624] [ 0.77599988 -0.37674624] [ 0.55575152 -0.24912124] [ 0.64752167 -0.37674624] [ 0.6658757  -0.24912124] [ 0.70258376 -0.22359624] [ 0.62916764 -0.24912124] [ 0.79435391 -0.24912124] [ 0.59245958 -0.14702123] [ 0.59245958 -0.24912124] [ 0.64752167 -0.22359624] [ 0.68422973  0.05717878] [ 0.86777003  0.26137879] [ 0.99624824 -0.14702123] [ 0.  0.] [ 0.  0.] [ 0.  0.] [ 0.  0.] [ 0.  0.] [ 0.  0.] [ 0.  0.] [ 0.  0.] [ 0.  0.] [ 0.  0.] [ 0.  0.] [ 0.  0.] [ 0.  0.] [ 0.  0.] [ 0.  0.] [ 0.  0.] [ 0.  0.] [ 0.  0.] [ 0.  0.] [ 0.  0.] [ 0.  0.] [ 0.  0.] [ 0.  0.] [ 0.  0.] [ 0.  0.] [ 0.  0.] [ 0.  0.] [ 0.  0.] [ 0.  0.] [ 0.  0.] [ 0.  0.] [ 0.  0.] [ 0.  0.] [ 0.  0.] [ 0.  0.] [ 0.  0.] [ 0.  0.] [ 0.  0.] [ 0.  0.] [ 0.  0.] [ 0.  0.] [ 0.  0.] [ 0.  0.] [ 0.  0.] [ 0.  0.] [ 0.  0.] [ 0.  0.] [ 0.  0.] [ 0.  0.] [ 0.  0.] [ 0.  0.] [ 0.  0.] [ 0.  0.] [ 0.  0.] [ 0.  0.] [ 0.  0.] [ 0.  0.] [ 0.  0.] [ 0.  0.] [ 0.  0.] [ 0.  0.] [ 0.  0.]
[ 1.72123241  2.83940392] [ 1.84053361  3.45200395] [ 1.49180704  4.345379  ] [ 1.73040943  3.22227894] [ 1.40003689  1.58867886] [ 0.22537899 -0.04492123] [-0.72903056 -0.42779625] [-0.71067653 -0.52989625] [-0.98598698 -0.50437125] [-1.11446519 -0.52989625] [-1.33471354 -0.60647125] [-1.2429434  -0.50437125] [-1.33471354 -0.52989625] [-1.61002399 -0.58094625] [-1.53660787 -0.52989625] [-1.64673205 -0.45332125] [-1.88533444 -0.60647125] [-2.06887473 -0.58094625] [-1.99545862 -0.63199626] [-2.28912309 -0.75962126] [-2.43595533 -0.86172127] [-2.25241503 -0.86172127] [-2.34418518 -1.04039628] [-2.14229085 -1.11697128] [-1.75685623 -1.14249628] [-1.53660787 -1.19354628] [-1.16952728 -1.11697128] [-0.63726041 -1.06592128] [-0.28853385 -1.06592128] [-0.03157743 -0.78514626] [ 0.33550317 -0.63199626] [ 0.64752167 -0.52989625] [ 0.72093779 -0.30017124] [ 0.73929182 -0.17254623] [ 0.90447809 -0.12149623] [ 0.75764585  0.05717878] [ 0.83106197  0.10822878] [ 0.72093779  0.        ] [ 0.62916764  0.08270378] [ 0.68422973  0.26137879] [ 0.6658757   0.10822878] [ 0.50068943  0.26137879] [ 0.6658757   0.21032879] [ 0.46398137  0.26137879] [ 0.57410555  0.28690379] [ 0.44562734  0.31242879] [ 0.46398137  0.18480379] [ 0.4823354   0.33795379] [ 0.46398137  0.26137879] [ 0.33550317  0.21032879] [ 0.4823354   0.33795379] [ 0.29879511  0.28690379] [ 0.4823354   0.28690379] [ 0.24373302  0.23585379] [ 0.29879511  0.28690379] [ 0.39056525  0.23585379] [ 0.31714914  0.31242879] [ 0.31714914  0.23585379] [ 0.31714914  0.23585379] [ 0.28044108  0.28690379] [ 0.31714914  0.31242879] [ 0.22537899  0.23585379] [ 0.24373302  0.33795379] [ 0.28044108  0.31242879] [ 0.24373302  0.21032879] [ 0.24373302  0.31242879] [ 0.20702496  0.26137879] [ 0.29879511  0.21032879] [ 0.22537899  0.26137879] [ 0.22537899  0.21032879] [ 0.29879511  0.23585379] [ 0.24373302  0.18480379] [ 0.22537899  0.15927878] [ 0.22537899  0.10822878] [ 0.18867093  0.15927878] [ 0.20702496  0.13375378] [ 0.15196287  0.00612878] [ 0.20702496  0.08270378] [ 0.24373302  0.        ] [ 0.24373302  0.        ] [ 0.1703169  0.       ] [ 0.18867093  0.05717878] [ 0.22537899  0.00612878] [ 0.24373302  0.        ] [ 0.20702496 -0.01939623] [ 0.26208705  0.00612878] [ 0.26208705  0.10822878] [ 0.24373302  0.        ] [ 0.20702496  0.        ] [ 0.13360884  0.05717878] [ 0.26208705  0.08270378] [ 0.20702496  0.00612878] [ 0.18867093  0.10822878] [ 0.24373302  0.08270378] [ 0.26208705  0.        ] [ 0.24373302  0.08270378] [ 0.06019272  0.        ] [ 0.29879511  0.10822878] [ 0.18867093  0.13375378] [ 0.1703169   0.15927878] [ 0.11525481  0.10822878] [ 0.24373302  0.13375378] [ 0.1703169   0.15927878] [ 0.15196287  0.13375378] [ 0.15196287  0.18480379] [ 0.18867093  0.15927878] [ 0.18867093  0.10822878] [ 0.11525481  0.23585379] [ 0.28044108  0.23585379] [ 0.15196287  0.13375378] [ 0.29879511  0.18480379] [ 0.          0.13375378] [ 0.20702496  0.13375378] [ 0.24373302  0.18480379] [ 0.15196287  0.15927878] [ 0.20702496  0.05717878] [ 0.20702496  0.15927878] [ 0.24373302  0.10822878] [ 0.22537899  0.00612878] [ 0.31714914  0.18480379] [ 0.4823354  0.4145288] [ 0.68422973  0.5166288 ] [ 0.55575152  0.5166288 ] [ 0.59245958  0.33795379] [ 0.55575152  0.18480379] [ 0.42727331  0.05717878] [ 0.15196287 -0.04492123] [ 0.20702496 -0.17254623] [-0.03157743 -0.09597123] [ 0.22537899 -0.01939623] [ 0.04183869  0.00612878] [ 0.15196287  0.00612878] [-0.04993146  0.        ] [ 0.18867093 -0.01939623] [ 0.06019272  0.        ] [-0.0132234  0.       ] [ 0.11525481 -0.01939623] [ 0.20702496  0.        ] [ 0.13360884 -0.01939623] [ 0.13360884 -0.09597123] [ 0.26208705  0.4145288 ] [ 0.  0.] [ 0.  0.] [ 0.  0.] [ 0.  0.] [ 0.  0.] [ 0.  0.] [ 0.  0.] [ 0.  0.] [ 0.  0.] [ 0.  0.] [ 0.  0.]
[ 0.97789421  3.22227894] [ 1.19814256  4.524054  ] [ 1.01460227  4.24327899] [ 1.12472645  2.60967891] [-0.03157743  0.97607883] [-0.6923225   0.18480379] [-0.45372011 -0.17254623] [-0.8758628  -0.65752126] [-0.98598698 -0.52989625] [-1.15117325 -0.60647125] [-1.35306757 -0.86172127] [-1.35306757 -0.58094625] [-1.22458937 -0.42779625] [-1.51825384 -0.58094625] [-1.40812966 -0.58094625] [-1.81191832 -0.75962126] [-2.01381265 -0.78514626] [-1.62837802 -0.63199626] [-2.08722876 -0.70857126] [-2.10558279 -0.93829627] [-2.17899891 -0.93829627] [-2.25241503 -1.06592128] [-2.08722876 -1.21907129] [-2.25241503 -1.32117129] [-2.01381265 -1.37222129] [-1.33471354 -1.29564629] [-1.35306757 -1.39774629] [-0.96763295 -1.4487963 ] [-0.71067653 -1.39774629] [ 0.00513063 -1.16802128] [ 0.         -0.93829627] [ 0.62916764 -0.86172127] [ 0.50068943 -0.65752126] [ 0.6658757  -0.45332125] [ 0.79435391 -0.35122124] [ 0.849416   -0.22359624] [ 0.70258376 -0.04492123] [ 0.75764585 -0.17254623] [ 0.61081361  0.08270378] [ 0.62916764  0.00612878] [ 0.53739749  0.05717878] [ 0.50068943  0.08270378] [ 0.46398137  0.00612878] [ 0.39056525  0.        ] [ 0.31714914  0.05717878] [ 0.31714914  0.        ] [ 0.40891928  0.        ] [ 0.24373302  0.15927878] [ 0.42727331  0.10822878] [ 0.24373302  0.        ] [ 0.28044108  0.18480379] [ 0.26208705  0.08270378] [ 0.18867093  0.        ] [ 0.06019272  0.08270378] [ 0.24373302  0.05717878] [ 0.15196287  0.00612878] [-0.06828549  0.        ] [ 0.18867093  0.        ] [ 0.06019272 -0.01939623] [ 0.11525481  0.05717878] [-0.14170161  0.05717878] [ 0.4823354   0.10822878] [-0.06828549  0.13375378] [ 0.02348466 -0.04492123] [-0.10499355 -0.07044623] [ 0.09690078  0.08270378] [ 0.20702496  0.00612878] [-0.1967637  -0.07044623] [ 0.11525481  0.05717878] [-0.10499355  0.00612878] [-0.03157743  0.        ] [ 0.15196287  0.13375378] [-0.06828549  0.        ] [ 0.00513063  0.00612878] [ 0.18867093 -0.04492123] [ 0.         -0.09597123] [ 0.11525481 -0.01939623] [ 0.02348466 -0.07044623] [ 0.11525481 -0.04492123] [ 0.04183869 -0.04492123] [ 0.          0.00612878] [ 0.         -0.07044623] [ 0.         -0.09597123] [ 0.00513063 -0.09597123] [ 0.06019272 -0.14702123] [ 0.         -0.12149623] [ 0.06019272 -0.04492123] [ 0.00513063 -0.12149623] [ 0.06019272 -0.14702123] [ 0.04183869 -0.01939623] [ 0.09690078 -0.07044623] [ 0.06019272 -0.01939623] [ 0.11525481 -0.01939623] [ 0.26208705 -0.01939623] [ 0.09690078  0.        ] [ 0.18867093 -0.04492123] [ 0.1703169  -0.04492123] [ 0.29879511 -0.04492123] [ 0.09690078  0.        ] [ 0.28044108 -0.09597123] [-0.04993146  0.05717878] [ 0.22537899  0.00612878] [ 0.00513063 -0.07044623] [ 0.06019272 -0.07044623] [ 0.02348466  0.15927878] [ 0.29879511 -0.07044623] [ 0.06019272  0.13375378] [ 0.18867093  0.10822878] [ 0.31714914  0.08270378] [ 0.20702496  0.08270378] [ 0.33550317  0.10822878] [ 0.06019272  0.        ] [ 0.29879511  0.05717878] [ 0.1703169   0.10822878] [ 0.1703169  -0.04492123] [ 0.06019272 -0.01939623] [ 0.09690078 -0.01939623] [ 0.24373302  0.13375378] [ 0.33550317  0.31242879] [ 0.44562734  0.3890038 ] [ 0.50068943  0.4145288 ] [ 0.59245958  0.4400538 ] [ 0.29879511  0.33795379] [ 0.15196287  0.        ] [ 0.31714914 -0.07044623] [ 0.13360884 -0.09597123] [ 0.02348466 -0.09597123] [-0.03157743 -0.12149623] [ 0.11525481 -0.17254623] [ 0.         -0.12149623] [ 0.18867093 -0.01939623] [ 0.24373302 -0.01939623] [ 0.06019272 -0.09597123] [ 0.11525481 -0.12149623] [ 0.11525481 -0.07044623] [ 0.22537899 -0.14702123] [ 0.09690078  0.00612878] [ 0.18867093 -0.09597123] [ 0.20702496 -0.19807123] [ 0.09690078  0.08270378] [ 0.57410555  0.36347879] [ 0.83106197 -0.09597123] [ 1.43674495 -1.72957131] [ 2.60222584 -3.36317139] [ 1.95065779 -1.74233381] [ 1.84053361 -0.12149623] [ 0.6658757  -0.07044623] [-0.10499355  1.18027884] [ 0.4823354   1.76735387] [ 0.  0.] [ 0.  0.] [ 0.  0.]
[ 2.0240739   1.33342884] [ 2.33609241  1.94602887] [ 2.55634077  2.73730391] [ 2.92342136  2.68625391] [ 2.64811092  1.20580384] [ 1.47345301 -0.14702123] [ 0.29879511  0.26137879] [-0.14170161 -0.12149623] [-0.39865803 -0.24912124] [-0.21511773 -0.40227124] [-0.71067653 -0.50437125] [-0.96763295 -0.47884625] [-0.8758628  -0.60647125] [-0.83915474 -0.75962126] [-1.04104907 -0.68304626] [-1.04104907 -0.60647125] [-1.20623534 -0.78514626] [-1.20623534 -0.75962126] [-1.31635951 -0.73409626] [-1.62837802 -0.75962126] [-1.57331593 -1.09144628] [-1.7385022  -0.73409626] [-1.79356429 -0.98934627] [-1.97710459 -1.14249628] [-1.75685623 -1.06592128] [-1.81191832 -1.4998463 ] [-1.51825384 -1.01487128] [-1.81191832 -1.5508963 ] [-1.26129742 -1.32117129] [-0.58219832 -1.67852131] [-0.23347176 -0.98934627] [-0.39865803 -1.01487128] [ 0.09690078 -0.75962126] [ 0.39056525 -0.83619627] [ 0.68422973 -0.68304626] [ 0.75764585 -0.50437125] [ 0.849416   -0.40227124] [ 1.08801839 -0.22359624] [ 0.88612406 -0.27464624] [ 1.08801839 -0.22359624] [ 0.95954018 -0.17254623] [ 1.14308048 -0.19807123] [ 0.92283212 -0.30017124] [ 0.81270794 -0.24912124] [ 0.97789421 -0.14702123] [ 0.90447809 -0.42779625] [ 0.88612406 -0.19807123] [ 0.79435391 -0.14702123] [ 0.86777003 -0.27464624] [ 0.77599988 -0.30017124] [ 0.77599988 -0.19807123] [ 0.6658757  -0.24912124] [ 0.70258376 -0.27464624] [ 0.55575152 -0.30017124] [ 0.61081361 -0.04492123] [ 0.57410555 -0.22359624] [ 0.62916764 -0.32569624] [ 0.50068943 -0.09597123] [ 0.44562734 -0.19807123] [ 0.51904346 -0.35122124] [ 0.55575152 -0.19807123] [ 0.46398137 -0.24912124] [ 0.42727331 -0.27464624] [ 0.46398137 -0.22359624] [ 0.44562734 -0.35122124] [ 0.24373302 -0.27464624] [ 0.39056525 -0.32569624] [ 0.31714914 -0.22359624] [ 0.28044108 -0.22359624] [ 0.24373302 -0.24912124] [ 0.22537899 -0.22359624] [ 0.39056525 -0.17254623] [ 0.18867093 -0.07044623] [ 0.20702496 -0.19807123] [ 0.18867093 -0.30017124] [ 0.26208705 -0.14702123] [ 0.18867093 -0.22359624] [ 0.24373302 -0.14702123] [ 0.28044108 -0.12149623] [ 0.24373302 -0.19807123] [ 0.1703169  -0.19807123] [ 0.1703169  -0.14702123] [ 0.04183869 -0.12149623] [ 0.39056525 -0.09597123] [ 0.09690078 -0.32569624] [ 0.1703169  -0.22359624] [ 0.26208705 -0.12149623] [ 0.18867093 -0.19807123] [ 0.11525481 -0.12149623] [ 0.28044108 -0.17254623] [ 0.26208705  0.00612878] [ 0.13360884 -0.22359624] [ 0.18867093 -0.09597123] [ 0.28044108 -0.12149623] [ 0.18867093 -0.07044623] [ 0.3538572  -0.04492123] [ 0.22537899 -0.07044623] [ 0.37221122 -0.12149623] [ 0.29879511  0.00612878] [ 0.26208705 -0.09597123] [ 0.24373302 -0.12149623] [ 0.28044108 -0.17254623] [ 0.20702496 -0.04492123] [ 0.39056525 -0.19807123] [ 0.09690078 -0.19807123] [ 0.24373302 -0.01939623] [ 0.28044108 -0.24912124] [ 0.1703169  -0.04492123] [ 0.18867093 -0.09597123] [ 0.13360884 -0.17254623] [ 0.18867093 -0.07044623] [ 0.11525481 -0.07044623] [ 0.18867093 -0.09597123] [ 0.24373302 -0.07044623] [ 0.11525481 -0.01939623] [ 0.18867093 -0.12149623] [ 0.         -0.04492123] [ 0.26208705 -0.12149623] [ 0.26208705 -0.14702123] [ 0.13360884 -0.19807123] [ 0.06019272 -0.07044623] [ 0.20702496 -0.04492123] [ 0.39056525 -0.07044623] [ 0.37221122  0.15927878] [ 0.40891928  0.        ] [-0.03157743  0.13375378] [ 0.64752167  0.00612878] [ 0.18867093 -0.45332125] [-0.0132234  -0.37674624] [ 0.04183869 -0.14702123] [-0.34359594 -0.35122124] [ 0.15196287 -0.14702123] [ 0.22537899 -0.24912124] [ 0.06019272  0.00612878] [-0.0132234   0.08270378] [-0.0132234  -0.17254623] [-0.12334758  0.18480379] [-0.03157743 -0.07044623] [ 0.20702496  0.08270378] [-0.10499355  0.10822878] [-0.10499355  0.15927878] [ 0.29879511  0.18480379] [-0.06828549  0.4400538 ] [ 0.31714914  0.33795379] [ 0.55575152  0.5166288 ] [ 1.62028525 -0.68304626] [ 2.78576614 -1.75509631] [ 2.35444644 -0.13425873] [ 1.93230376  0.72082881] [ 0.75764585  0.95055382] [-0.0132234   1.74182886] [ 0.  0.]
[ 1.56522316  3.14570393] [ 1.36332883  4.16670399] [ 1.16143451  4.396429  ] [ 1.58357719  2.76282892] [ 0.81270794  1.12922883] [-0.36194997 -0.04492123] [-0.93092489 -0.30017124] [-0.96763295 -0.40227124] [-1.31635951 -0.42779625] [-1.31635951 -0.45332125] [-1.38977563 -0.47884625] [-1.44483772 -0.50437125] [-1.64673205 -0.58094625] [-1.66508608 -0.60647125] [-1.81191832 -0.50437125] [-1.84862638 -0.58094625] [-1.88533444 -0.60647125] [-1.97710459 -0.60647125] [-1.99545862 -0.60647125] [-2.10558279 -0.73409626] [-2.19735294 -0.75962126] [-2.19735294 -0.98934627] [-2.16064488 -1.06592128] [-2.16064488 -1.01487128] [-1.94039653 -1.11697128] [-1.9220425  -1.16802128] [-1.72014817 -1.14249628] [-1.3714216  -1.19354628] [-1.00434101 -1.19354628] [-0.74738459 -1.09144628] [-0.32524191 -0.93829627] [-0.08663952 -0.88724627] [ 0.06019272 -0.65752126] [ 0.3538572  -0.50437125] [ 0.40891928 -0.37674624] [ 0.57410555 -0.22359624] [ 0.44562734 -0.12149623] [ 0.53739749  0.        ] [ 0.50068943  0.        ] [ 0.40891928  0.08270378] [ 0.26208705  0.05717878] [ 0.28044108  0.13375378] [ 0.1703169   0.08270378] [ 0.29879511  0.10822878] [ 0.11525481  0.21032879] [ 0.18867093  0.18480379] [ 0.          0.08270378] [ 0.18867093  0.23585379] [ 0.02348466  0.21032879] [ 0.06019272  0.08270378] [ 0.00513063  0.23585379] [ 0.          0.10822878] [-0.16005564  0.18480379] [-0.17840967  0.15927878] [-0.04993146  0.08270378] [-0.16005564  0.13375378] [-0.21511773  0.18480379] [-0.14170161  0.13375378] [-0.12334758  0.15927878] [-0.23347176  0.10822878] [-0.16005564  0.13375378] [-0.380304    0.08270378] [-0.25182579  0.18480379] [-0.28853385  0.13375378] [-0.380304    0.18480379] [-0.08663952  0.26137879] [-0.03157743  0.4400538 ] [ 0.11525481  0.5676788 ] [ 0.15196287  0.4655788 ] [ 0.00513063  0.5676788 ] [-0.04993146  0.08270378] [-0.30688788 -0.04492123] [-0.41701206  0.        ] [-0.34359594 -0.01939623] [-0.5087822  -0.04492123] [-0.67396847 -0.07044623] [-0.45372011 -0.07044623] [-0.47207414  0.21032879] [-0.5087822  -0.01939623] [-0.58219832  0.08270378] [-0.61890638  0.23585379] [-0.5087822   0.08270378] [-0.61890638  0.13375378] [-0.60055235  0.10822878] [-0.47207414  0.15927878] [-0.65561444  0.18480379] [-0.52713623  0.21032879] [-0.5087822  0.       ] [-0.54549026  0.4911038 ] [-0.23347176  0.3890038 ] [-0.04993146 -0.17254623] [ 0.  0.] [ 0.  0.] [ 0.  0.] [ 0.  0.] [ 0.  0.] [ 0.  0.] [ 0.  0.] [ 0.  0.] [ 0.  0.] [ 0.  0.] [ 0.  0.] [ 0.  0.] [ 0.  0.] [ 0.  0.] [ 0.  0.] [ 0.  0.] [ 0.  0.] [ 0.  0.] [ 0.  0.] [ 0.  0.] [ 0.  0.] [ 0.  0.] [ 0.  0.] [ 0.  0.] [ 0.  0.] [ 0.  0.] [ 0.  0.] [ 0.  0.] [ 0.  0.] [ 0.  0.] [ 0.  0.] [ 0.  0.] [ 0.  0.] [ 0.  0.] [ 0.  0.] [ 0.  0.] [ 0.  0.] [ 0.  0.] [ 0.  0.] [ 0.  0.] [ 0.  0.] [ 0.  0.] [ 0.  0.] [ 0.  0.] [ 0.  0.] [ 0.  0.] [ 0.  0.] [ 0.  0.] [ 0.  0.] [ 0.  0.] [ 0.  0.] [ 0.  0.] [ 0.  0.] [ 0.  0.] [ 0.  0.] [ 0.  0.] [ 0.  0.] [ 0.  0.] [ 0.  0.] [ 0.  0.] [ 0.  0.]
[ 0.22537899 -0.63199626] [ 1.23485062 -2.26559634] [ 2.26267629 -2.49532135] [ 1.30826674 -0.87448377] [ 0.40891928  0.3890038 ] [-0.76573862  1.18027884] [ 0.22537899  1.89497887] [ 0.62916764  2.60967891] [ 0.4823354   3.73277896] [ 0.57410555  4.06460398] [ 0.26208705  2.5331039 ] [-0.04993146  0.89950382] [-0.8758628  -0.01939623] [-0.94927892 -0.07044623] [-1.13281922 -0.19807123] [-1.18788131 -0.24912124] [-1.27965145 -0.17254623] [-1.2429434  -0.24912124] [-1.27965145 -0.27464624] [-1.38977563 -0.19807123] [-1.44483772 -0.32569624] [-1.49989981 -0.27464624] [-1.66508608 -0.27464624] [-1.72014817 -0.32569624] [-1.68344011 -0.30017124] [-1.72014817 -0.35122124] [-1.77521026 -0.37674624] [-1.86698041 -0.52989625] [-1.9220425  -0.58094625] [-2.06887473 -0.78514626] [-2.12393682 -0.60647125] [-1.95875056 -0.65752126] [-1.72014817 -0.60647125] [-1.57331593 -0.68304626] [-1.22458937 -0.83619627] [-1.09611116 -1.11697128] [-0.89421683 -1.27012129] [-0.94927892 -1.34669629] [-0.85750877 -1.32117129] [-0.58219832 -1.11697128] [-0.25182579 -1.04039628] [-0.03157743 -0.88724627] [ 0.00513063 -0.68304626] [ 0.13360884 -0.60647125] [ 0.22537899 -0.42779625] [ 0.26208705 -0.27464624] [ 0.20702496 -0.24912124] [ 0.18867093 -0.14702123] [ 0.15196287 -0.14702123] [ 0.09690078 -0.04492123] [ 0.00513063 -0.09597123] [ 0.00513063 -0.04492123] [-0.04993146  0.        ] [ 0.06019272  0.        ] [-0.04993146  0.08270378] [-0.06828549  0.08270378] [-0.0132234   0.05717878] [-0.03157743  0.18480379] [ 0.04183869  0.26137879] [ 0.04183869  0.13375378] [ 0.          0.28690379] [ 0.28044108  0.3890038 ] [ 0.83106197 -0.19807123] [ 1.8955957 -1.4998463] [ 3.05189957 -1.85719632] [ 2.00571987 -0.23635874] [ 2.17090614  1.28237884] [ 0.99624824  1.79287887] [ 0.99624824  2.5075789 ] [ 0.  0.] [ 0.  0.] [ 0.  0.] [ 0.  0.] [ 0.  0.] [ 0.  0.] [ 0.  0.] [ 0.  0.] [ 0.  0.] [ 0.  0.] [ 0.  0.] [ 0.  0.] [ 0.  0.] [ 0.  0.] [ 0.  0.] [ 0.  0.] [ 0.  0.] [ 0.  0.] [ 0.  0.] [ 0.  0.] [ 0.  0.] [ 0.  0.] [ 0.  0.] [ 0.  0.] [ 0.  0.] [ 0.  0.] [ 0.  0.] [ 0.  0.] [ 0.  0.] [ 0.  0.] [ 0.  0.] [ 0.  0.] [ 0.  0.] [ 0.  0.] [ 0.  0.] [ 0.  0.] [ 0.  0.] [ 0.  0.] [ 0.  0.] [ 0.  0.] [ 0.  0.] [ 0.  0.] [ 0.  0.] [ 0.  0.] [ 0.  0.] [ 0.  0.] [ 0.  0.] [ 0.  0.] [ 0.  0.] [ 0.  0.] [ 0.  0.] [ 0.  0.] [ 0.  0.] [ 0.  0.] [ 0.  0.] [ 0.  0.] [ 0.  0.] [ 0.  0.] [ 0.  0.] [ 0.  0.] [ 0.  0.] [ 0.  0.] [ 0.  0.] [ 0.  0.] [ 0.  0.] [ 0.  0.] [ 0.  0.] [ 0.  0.] [ 0.  0.] [ 0.  0.] [ 0.  0.] [ 0.  0.] [ 0.  0.] [ 0.  0.] [ 0.  0.] [ 0.  0.] [ 0.  0.] [ 0.  0.] [ 0.  0.] [ 0.  0.] [ 0.  0.] [ 0.  0.] [ 0.  0.]
[ 0.95954018 -0.70857126] [ 2.11584405 -2.34217134] [ 2.17090614 -1.34669629] [ 1.80382555  0.27414129] [ 0.62916764  0.15927878] [-0.1967637   1.02712883] [ 0.62916764  1.63972886] [ 0.83106197  2.3799539 ] [ 0.37221122  3.63067896] [ 0.72093779  3.52857895] [ 0.51904346  1.89497887] [-0.63726041  0.26137879] [-1.00434101 -0.04492123] [-1.04104907 -0.17254623] [-1.2429434  -0.09597123] [-1.31635951 -0.27464624] [-1.3714216  -0.24912124] [-1.35306757 -0.24912124] [-1.48154578 -0.37674624] [-1.53660787 -0.35122124] [-1.68344011 -0.42779625] [-1.57331593 -0.45332125] [-1.62837802 -0.37674624] [-1.7385022  -0.45332125] [-1.61002399 -0.52989625] [-1.72014817 -0.58094625] [-1.72014817 -0.58094625] [-1.72014817 -0.63199626] [-1.57331593 -0.75962126] [-1.57331593 -0.83619627] [-1.51825384 -0.96382127] [-1.42648369 -1.01487128] [-1.38977563 -1.01487128] [-1.09611116 -1.21907129] [-0.93092489 -1.14249628] [-0.78409265 -1.32117129] [-0.39865803 -1.32117129] [-0.08663952 -1.21907129] [ 0.22537899 -1.14249628] [ 0.40891928 -1.04039628] [ 0.72093779 -0.91277127] [ 0.849416   -0.63199626] [ 1.0329563  -0.63199626] [ 1.10637242 -0.45332125] [ 1.28991271 -0.17254623] [ 1.17978853 -0.19807123] [ 1.17978853  0.00612878] [ 1.05131033  0.05717878] [ 1.01460227  0.10822878] [ 0.95954018  0.13375378] [ 0.77599988  0.23585379] [ 0.6658757   0.21032879] [ 0.6658757   0.26137879] [ 0.51904346  0.3890038 ] [ 0.59245958  0.28690379] [ 0.4823354   0.33795379] [ 0.37221122  0.36347879] [ 0.44562734  0.33795379] [ 0.28044108  0.36347879] [ 0.24373302  0.31242879] [ 0.20702496  0.26137879] [ 0.24373302  0.31242879] [ 0.09690078  0.28690379] [ 0.1703169   0.23585379] [ 0.15196287  0.31242879] [ 0.06019272  0.28690379] [ 0.06019272  0.23585379] [ 0.          0.26137879] [ 0.06019272  0.31242879] [ 0.06019272  0.21032879] [-0.08663952  0.26137879] [-0.08663952  0.26137879] [ 0.02348466  0.18480379] [-0.06828549  0.26137879] [-0.08663952  0.31242879] [-0.16005564  0.21032879] [-0.04993146  0.28690379] [-0.08663952  0.28690379] [-0.06828549  0.15927878] [-0.17840967  0.21032879] [-0.17840967  0.23585379] [-0.03157743  0.15927878] [-0.17840967  0.10822878] [-0.21511773  0.15927878] [-0.08663952  0.13375378] [-0.06828549  0.08270378] [-0.1967637   0.10822878] [-0.21511773  0.        ] [-0.12334758  0.08270378] [-0.10499355  0.10822878] [-0.14170161  0.05717878] [-0.12334758  0.05717878] [-0.16005564  0.10822878] [-0.04993146 -0.01939623] [-0.17840967  0.05717878] [-0.10499355  0.08270378] [-0.12334758  0.        ] [-0.10499355  0.        ] [-0.10499355  0.08270378] [ 0.06019272  0.08270378] [ 0.1703169   0.33795379] [ 0.22537899  0.4655788 ] [ 0.18867093  0.26137879] [ 0.04183869  0.26137879] [ 0.11525481  0.13375378] [ 0.02348466 -0.07044623] [-0.27017982 -0.12149623] [-0.25182579 -0.09597123] [-0.23347176 -0.22359624] [-0.380304   -0.07044623] [-0.23347176 -0.01939623] [-0.28853385 -0.12149623] [-0.30688788 -0.07044623] [-0.30688788 -0.04492123] [-0.32524191 -0.09597123] [-0.27017982  0.        ] [-0.14170161 -0.04492123] [-0.25182579 -0.04492123] [-0.21511773 -0.04492123] [-0.14170161 -0.01939623] [-0.1967637  -0.04492123] [-0.03157743  0.4400538 ] [ 0.  0.] [ 0.  0.] [ 0.  0.] [ 0.  0.] [ 0.  0.] [ 0.  0.] [ 0.  0.] [ 0.  0.] [ 0.  0.] [ 0.  0.] [ 0.  0.] [ 0.  0.] [ 0.  0.] [ 0.  0.] [ 0.  0.] [ 0.  0.] [ 0.  0.] [ 0.  0.] [ 0.  0.] [ 0.  0.] [ 0.  0.] [ 0.  0.] [ 0.  0.] [ 0.  0.] [ 0.  0.] [ 0.  0.] [ 0.  0.] [ 0.  0.] [ 0.  0.] [ 0.  0.]
[ 1.25320465 -0.50437125] [ 2.41868554 -1.88272132] [ 3.05189957 -1.5508963 ] [ 2.51963271  0.06994128] [ 1.3449748   0.33795379] [ 0.1703169   1.15475383] [ 0.97789421  1.84392887] [ 1.36332883  2.55862891] [ 1.23485062  3.57962896] [ 1.43674495  3.75830397] [ 1.17978853  2.30337889] [ 0.6658757   0.66977881] [-0.06828549  0.00612878] [-0.41701206 -0.12149623] [-0.380304   -0.17254623] [-0.52713623 -0.17254623] [-0.61890638 -0.24912124] [-0.6923225  -0.30017124] [-0.80244668 -0.27464624] [-0.8758628  -0.27464624] [-0.96763295 -0.35122124] [-0.94927892 -0.35122124] [-1.00434101 -0.30017124] [-1.11446519 -0.40227124] [-1.18788131 -0.37674624] [-1.22458937 -0.42779625] [-1.33471354 -0.55542125] [-1.44483772 -0.55542125] [-1.53660787 -0.65752126] [-1.5549619  -0.73409626] [-1.66508608 -0.73409626] [-1.70179414 -0.86172127] [-1.70179414 -1.01487128] [-1.61002399 -0.98934627] [-1.49989981 -1.06592128] [-1.38977563 -1.16802128] [-1.20623534 -1.06592128] [-0.91257086 -1.11697128] [-0.52713623 -0.98934627] [-0.30688788 -0.86172127] [-0.06828549 -0.73409626] [ 0.18867093 -0.60647125] [ 0.42727331 -0.45332125] [ 0.44562734 -0.27464624] [ 0.72093779 -0.27464624] [ 0.6658757  -0.12149623] [ 0.72093779  0.        ] [ 0.62916764  0.00612878] [ 0.57410555  0.00612878] [ 0.61081361  0.13375378] [ 0.55575152  0.00612878] [ 0.46398137  0.18480379] [ 0.42727331  0.13375378] [ 0.50068943  0.18480379] [ 0.4823354   0.18480379] [ 0.40891928  0.23585379] [ 0.40891928  0.10822878] [ 0.40891928  0.23585379] [ 0.31714914  0.18480379] [ 0.29879511  0.15927878] [ 0.20702496  0.18480379] [ 0.40891928  0.18480379] [ 0.20702496  0.08270378] [ 0.13360884  0.15927878] [ 0.13360884  0.15927878] [ 0.15196287  0.10822878] [ 0.13360884  0.15927878] [ 0.00513063  0.15927878] [ 0.06019272  0.15927878] [ 0.06019272  0.10822878] [ 0.04183869  0.18480379] [-0.04993146  0.05717878] [ 0.02348466  0.18480379] [ 0.02348466  0.18480379] [-0.0132234   0.13375378] [-0.10499355  0.15927878] [-0.03157743  0.23585379] [ 0.00513063  0.15927878] [ 0.04183869  0.26137879] [-0.06828549  0.15927878] [-0.08663952  0.15927878] [ 0.13360884  0.23585379] [-0.06828549  0.23585379] [-0.08663952  0.15927878] [-0.0132234   0.21032879] [ 0.06019272  0.31242879] [-0.08663952  0.23585379] [-0.03157743  0.28690379] [-0.08663952  0.31242879] [ 0.18867093  0.33795379] [ 0.          0.33795379] [ 0.18867093  0.5166288 ] [ 0.39056525  0.59320381] [ 0.31714914  0.64425381] [ 0.1703169  0.4911038] [ 0.15196287  0.3890038 ] [ 0.28044108  0.23585379] [-0.04993146  0.21032879] [-0.16005564  0.18480379] [-0.16005564  0.18480379] [-0.06828549  0.13375378] [-0.23347176  0.13375378] [-0.04993146  0.31242879] [-0.1967637   0.21032879] [-0.08663952  0.13375378] [-0.21511773  0.18480379] [-0.17840967  0.26137879] [-0.08663952  0.18480379] [-0.04993146  0.23585379] [-0.10499355  0.21032879] [-0.08663952  0.18480379] [-0.08663952  0.13375378] [ 0.02348466  0.18480379] [ 0.11525481  0.5166288 ] [ 0.  0.] [ 0.  0.] [ 0.  0.] [ 0.  0.] [ 0.  0.] [ 0.  0.] [ 0.  0.] [ 0.  0.] [ 0.  0.] [ 0.  0.] [ 0.  0.] [ 0.  0.] [ 0.  0.] [ 0.  0.] [ 0.  0.] [ 0.  0.] [ 0.  0.] [ 0.  0.] [ 0.  0.] [ 0.  0.] [ 0.  0.] [ 0.  0.] [ 0.  0.] [ 0.  0.] [ 0.  0.] [ 0.  0.] [ 0.  0.] [ 0.  0.] [ 0.  0.] [ 0.  0.] [ 0.  0.] [ 0.  0.] [ 0.  0.] [ 0.  0.] [ 0.  0.] [ 0.  0.] [ 0.  0.] [ 0.  0.]
[ 1.50098406  2.09917888] [ 2.04242793  2.83940392] [ 1.69370137  3.83487897] [ 1.98736584  3.40095395] [ 2.13419808  1.76735387] [ 0.95954018  0.18480379] [-0.21511773  0.00612878] [-0.80244668 -0.22359624] [-1.02269504 -0.17254623] [-1.09611116 -0.27464624] [-1.2429434  -0.30017124] [-1.27965145 -0.24912124] [-1.40812966 -0.37674624] [-1.44483772 -0.37674624] [-1.42648369 -0.30017124] [-1.46319175 -0.40227124] [-1.42648369 -0.40227124] [-1.49989981 -0.32569624] [-1.49989981 -0.42779625] [-1.62837802 -0.47884625] [-1.64673205 -0.52989625] [-1.7385022  -0.63199626] [-1.5549619  -0.52989625] [-1.77521026 -0.50437125] [-1.62837802 -0.73409626] [-1.49989981 -0.68304626] [-1.3714216  -0.68304626] [-1.0594031  -0.78514626] [-0.80244668 -0.63199626] [-0.47207414 -0.47884625] [-0.17840967 -0.52989625] [ 0.18867093 -0.55542125] [ 0.24373302 -0.55542125] [ 0.50068943 -0.63199626] [ 0.29879511 -0.55542125] [ 0.44562734 -0.40227124] [ 0.53739749 -0.40227124] [ 0.70258376 -0.32569624] [ 0.59245958 -0.14702123] [ 0.39056525 -0.17254623] [ 0.61081361 -0.12149623] [ 0.42727331 -0.14702123] [ 0.62916764 -0.07044623] [ 0.50068943 -0.04492123] [ 0.64752167 -0.01939623] [ 0.62916764  0.00612878] [ 0.75764585 -0.04492123] [ 0.64752167  0.10822878] [ 0.77599988  0.08270378] [ 1.06966436  0.05717878] [ 0.88612406  0.15927878] [ 1.25320465  0.15927878] [ 0.94118615  0.10822878] [ 0.86777003  0.23585379] [ 0.70258376  0.18480379] [ 1.01460227  0.15927878] [ 1.10637242 -0.04492123] [ 0.94118615 -0.07044623] [ 0.75764585 -0.35122124] [ 0.59245958 -0.17254623] [ 0.42727331 -0.35122124] [ 0.6658757  -0.19807123] [ 0.39056525 -0.22359624] [ 0.62916764 -0.35122124] [ 0.29879511 -0.04492123] [ 0.81270794 -0.07044623] [ 0.849416   -0.55542125] [ 1.95065779 -1.85719632] [ 3.11613868 -2.24007134] [ 2.59304883 -0.61923376] [ 2.18926017 -0.07044623] [ 1.01460227  0.4911038 ] [ 0.  0.] [ 0.  0.] [ 0.  0.] [ 0.  0.] [ 0.  0.] [ 0.  0.] [ 0.  0.] [ 0.  0.] [ 0.  0.] [ 0.  0.] [ 0.  0.] [ 0.  0.] [ 0.  0.] [ 0.  0.] [ 0.  0.] [ 0.  0.] [ 0.  0.] [ 0.  0.] [ 0.  0.] [ 0.  0.] [ 0.  0.] [ 0.  0.] [ 0.  0.] [ 0.  0.] [ 0.  0.] [ 0.  0.] [ 0.  0.] [ 0.  0.] [ 0.  0.] [ 0.  0.] [ 0.  0.] [ 0.  0.] [ 0.  0.] [ 0.  0.] [ 0.  0.] [ 0.  0.] [ 0.  0.] [ 0.  0.] [ 0.  0.] [ 0.  0.] [ 0.  0.] [ 0.  0.] [ 0.  0.] [ 0.  0.] [ 0.  0.] [ 0.  0.] [ 0.  0.] [ 0.  0.] [ 0.  0.] [ 0.  0.] [ 0.  0.] [ 0.  0.] [ 0.  0.] [ 0.  0.] [ 0.  0.] [ 0.  0.] [ 0.  0.] [ 0.  0.] [ 0.  0.] [ 0.  0.] [ 0.  0.] [ 0.  0.] [ 0.  0.] [ 0.  0.] [ 0.  0.] [ 0.  0.] [ 0.  0.] [ 0.  0.] [ 0.  0.] [ 0.  0.] [ 0.  0.] [ 0.  0.] [ 0.  0.] [ 0.  0.] [ 0.  0.] [ 0.  0.] [ 0.  0.] [ 0.  0.] [ 0.  0.] [ 0.  0.]
[ 1.47345301  3.04360393] [ 1.08801839  4.01355398] [ 1.14308048  3.91145397] [ 1.45509898  2.27785389] [ 0.28044108  0.64425381] [-0.89421683 -0.09597123] [-0.98598698 -0.30017124] [-1.31635951 -0.19807123] [-1.3714216  -0.37674624] [-1.27965145 -0.35122124] [-1.46319175 -0.32569624] [-1.59166996 -0.30017124] [-1.61002399 -0.40227124] [-1.66508608 -0.45332125] [-1.7385022  -0.32569624] [-1.86698041 -0.52989625] [-1.79356429 -0.47884625] [-2.01381265 -0.50437125] [-1.75685623 -0.63199626] [-2.10558279 -0.65752126] [-1.99545862 -0.70857126] [-1.97710459 -0.81067127] [-1.9220425  -0.86172127] [-1.95875056 -0.86172127] [-1.77521026 -1.06592128] [-1.53660787 -0.91277127] [-1.42648369 -1.06592128] [-1.11446519 -1.14249628] [-0.80244668 -0.96382127] [-0.54549026 -0.91277127] [-0.21511773 -0.81067127] [-0.17840967 -0.58094625] [ 0.         -0.63199626] [ 0.29879511 -0.45332125] [ 0.33550317 -0.30017124] [ 0.40891928 -0.09597123] [ 0.39056525 -0.01939623] [ 0.40891928 -0.01939623] [ 0.33550317  0.10822878] [ 0.28044108 -0.17254623] [ 0.26208705  0.13375378] [ 0.1703169  0.       ] [ 0.20702496  0.00612878] [ 0.09690078  0.08270378] [ 0.09690078  0.10822878] [ 0.1703169   0.05717878] [ 0.          0.18480379] [ 0.          0.08270378] [ 0.04183869  0.18480379] [ 0.02348466  0.21032879] [ 0.02348466  0.21032879] [ 0.02348466  0.08270378] [ 0.11525481  0.10822878] [ 0.04183869  0.21032879] [-0.16005564  0.10822878] [-0.04993146  0.        ] [-0.12334758  0.08270378] [-0.0132234   0.05717878] [-0.14170161  0.08270378] [-0.27017982  0.05717878] [-0.10499355  0.08270378] [-0.17840967  0.08270378] [-0.27017982  0.13375378] [-0.23347176  0.18480379] [-0.27017982  0.13375378] [-0.23347176  0.13375378] [-0.23347176  0.15927878] [-0.36194997  0.05717878] [-0.27017982  0.18480379] [-0.17840967  0.10822878] [-0.30688788  0.15927878] [-0.36194997  0.18480379] [-0.25182579  0.05717878] [-0.27017982  0.21032879] [-0.27017982  0.31242879] [-0.32524191  0.05717878] [-0.25182579  0.21032879] [-0.1967637   0.18480379] [-0.23347176  0.23585379] [-0.25182579  0.23585379] [-0.28853385  0.13375378] [-0.08663952  0.10822878] [-0.34359594  0.23585379] [-0.25182579  0.15927878] [-0.17840967  0.21032879] [-0.30688788  0.15927878] [-0.17840967  0.23585379] [-0.34359594  0.15927878] [-0.27017982  0.15927878] [-0.34359594  0.13375378] [-0.28853385  0.18480379] [-0.34359594  0.05717878] [-0.23347176  0.18480379] [-0.27017982  0.10822878] [-0.380304    0.15927878] [-0.27017982  0.13375378] [-0.21511773  0.26137879] [-0.30688788  0.13375378] [-0.25182579  0.13375378] [-0.27017982  0.13375378] [-0.1967637   0.13375378] [-0.23347176  0.15927878] [-0.27017982  0.15927878] [-0.21511773  0.15927878] [-0.21511773  0.15927878] [-0.10499355  0.05717878] [-0.25182579  0.21032879] [-0.25182579  0.10822878] [-0.12334758  0.        ] [-0.1967637   0.26137879] [-0.27017982  0.05717878] [-0.16005564  0.13375378] [-0.16005564  0.10822878] [-0.23347176  0.08270378] [-0.17840967  0.00612878] [-0.23347176  0.10822878] [-0.17840967  0.08270378] [-0.17840967  0.00612878] [-0.27017982  0.        ] [-0.23347176  0.05717878] [-0.1967637  0.       ] [-0.27017982  0.        ] [-0.16005564  0.        ] [-0.16005564  0.00612878] [-0.17840967  0.05717878] [-0.14170161  0.05717878] [-0.14170161  0.18480379] [ 0.02348466  0.28690379] [ 0.11525481  0.31242879] [ 0.28044108  0.3890038 ] [ 0.31714914  0.31242879] [ 0.39056525  0.13375378] [ 0.15196287 -0.22359624] [-0.08663952 -0.07044623] [-0.27017982 -0.12149623] [-0.21511773 -0.17254623] [-0.23347176 -0.09597123] [-0.34359594 -0.19807123] [-0.39865803 -0.17254623] [-0.36194997 -0.17254623] [-0.27017982 -0.14702123] [-0.27017982 -0.12149623] [-0.39865803 -0.07044623] [-0.39865803 -0.09597123] [-0.32524191 -0.01939623] [-0.36194997 -0.07044623] [-0.41701206 -0.17254623] [-0.27017982 -0.19807123] [-0.30688788 -0.09597123] [-0.28853385 -0.07044623] [-0.12334758  0.36347879] [ 0.1703169  -0.07044623]
[ 0.57410555 -0.04492123] [ 1.10637242 -0.55542125] [ 2.27185331 -2.18902133] [ 2.92342136 -1.72957131] [ 1.96901182 -0.10873373] [ 0.83106197  0.36347879] [-0.34359594  1.51210385] [ 0.42727331  2.3799539 ] [ 0.86777003  3.40095395] [ 0.81270794  4.54957901] [ 0.64752167  4.62615401] [ 0.72093779  2.99255393] [ 0.4823354   1.35895384] [-0.28853385 -0.04492123] [-0.21511773 -0.24912124] [-0.36194997 -0.07044623] [-0.0132234   0.00612878] [-0.83915474 -0.19807123] [-0.82080071 -0.17254623] [-0.49042817 -0.42779625] [-0.60055235 -0.27464624] [-0.8758628  -0.35122124] [-0.27017982 -0.37674624] [-1.00434101 -0.40227124] [-0.56384429 -0.24912124] [-1.29800548 -0.40227124] [-1.29800548 -0.45332125] [-1.18788131 -0.63199626] [-1.22458937 -0.60647125] [-1.31635951 -0.63199626] [-1.2429434  -0.60647125] [-1.22458937 -0.73409626] [-0.98598698 -1.19354628] [-0.83915474 -1.04039628] [-0.63726041 -1.01487128] [-0.47207414 -1.09144628] [-0.17840967 -0.78514626] [-0.0132234  -0.88724627] [ 0.15196287 -0.78514626] [ 0.1703169  -0.65752126] [ 0.42727331 -0.68304626] [ 0.51904346 -0.37674624] [ 0.59245958 -0.42779625] [ 0.59245958  0.10822878] [ 0.50068943  0.00612878] [ 0.68422973  0.08270378] [ 0.61081361  0.31242879] [ 0.4823354   0.33795379] [ 0.51904346  0.18480379] [ 0.55575152  0.26137879] [ 0.62916764  0.15927878] [ 0.51904346  0.28690379] [ 0.73929182  0.5421538 ] [ 0.11525481  0.10822878] [ 0.53739749  0.36347879] [ 0.40891928  0.26137879] [ 0.68422973  0.26137879] [ 0.33550317  0.15927878] [ 0.55575152  0.36347879] [ 0.37221122  0.23585379] [ 0.4823354   0.33795379] [ 0.28044108  0.28690379] [ 0.39056525  0.15927878] [ 0.26208705  0.26137879] [ 0.40891928  0.31242879] [ 0.18867093  0.15927878] [ 0.26208705  0.18480379] [ 0.1703169   0.21032879] [ 0.40891928  0.18480379] [ 0.11525481  0.28690379] [ 0.24373302  0.00612878] [ 0.42727331  0.15927878] [ 0.06019272  0.00612878] [ 0.20702496  0.21032879] [ 0.24373302  0.15927878] [ 0.09690078  0.18480379] [ 0.15196287  0.        ] [ 0.15196287  0.08270378] [ 0.20702496  0.10822878] [ 0.00513063  0.18480379] [ 0.          0.00612878] [ 0.13360884  0.08270378] [-0.0132234   0.08270378] [ 0.13360884  0.00612878] [ 0.09690078  0.08270378] [ 0.          0.13375378] [ 0.1703169   0.00612878] [ 0.          0.31242879] [ 0.24373302  0.4400538 ] [ 0.50068943  0.3890038 ] [ 0.50068943  0.4145288 ] [ 0.64752167  0.5676788 ] [ 0.68422973  0.18480379] [ 0.4823354   0.10822878] [ 0.28044108 -0.04492123] [ 0.00513063 -0.07044623] [ 0.13360884  0.05717878] [-0.03157743  0.08270378] [ 0.04183869 -0.17254623] [-0.12334758 -0.09597123] [-0.03157743  0.21032879] [ 0.11525481  0.00612878] [-0.14170161  0.05717878] [-0.0132234   0.00612878] [ 0.15196287 -0.09597123] [ 0.02348466  0.13375378] [ 0.26208705  0.00612878] [-0.0132234   0.05717878] [ 0.09690078 -0.09597123] [ 0.00513063  0.23585379] [ 0.55575152  0.5676788 ] [ 0.18867093  0.18480379] [ 0.  0.] [ 0.  0.] [ 0.  0.] [ 0.  0.] [ 0.  0.] [ 0.  0.] [ 0.  0.] [ 0.  0.] [ 0.  0.] [ 0.  0.] [ 0.  0.] [ 0.  0.] [ 0.  0.] [ 0.  0.] [ 0.  0.] [ 0.  0.] [ 0.  0.] [ 0.  0.] [ 0.  0.] [ 0.  0.] [ 0.  0.] [ 0.  0.] [ 0.  0.] [ 0.  0.] [ 0.  0.] [ 0.  0.] [ 0.  0.] [ 0.  0.] [ 0.  0.] [ 0.  0.] [ 0.  0.] [ 0.  0.] [ 0.  0.] [ 0.  0.] [ 0.  0.] [ 0.  0.] [ 0.  0.] [ 0.  0.] [ 0.  0.] [ 0.  0.]
[ 2.22596823 -1.27012129] [ 3.16202375 -0.52989625] [ 2.37280047  1.09094133] [ 1.19814256  0.5676788 ] [ 0.02348466  1.43552885] [-0.380304    2.02260388] [-0.17840967  2.76282892] [-0.45372011  3.78382897] [-0.25182579  3.60515396] [-0.10499355  1.97155388] [-0.5087822   0.33795379] [-1.15117325 -0.09597123] [-1.13281922 -0.19807123] [-1.38977563 -0.17254623] [-1.18788131 -0.30017124] [-1.3714216  -0.27464624] [-1.33471354 -0.30017124] [-1.51825384 -0.32569624] [-1.42648369 -0.27464624] [-1.44483772 -0.50437125] [-1.70179414 -0.45332125] [-1.83027235 -0.47884625] [-2.03216668 -0.75962126] [-2.01381265 -0.96382127] [-2.30747712 -0.93829627] [-2.38089324 -1.14249628] [-2.47266339 -1.39774629] [-2.21570697 -1.4232713 ] [-2.34418518 -1.4743213 ] [-2.06887473 -1.5508963 ] [-1.83027235 -1.4998463 ] [-1.42648369 -1.34669629] [-1.16952728 -1.37222129] [-1.00434101 -1.09144628] [-0.71067653 -0.88724627] [-0.41701206 -0.75962126] [-0.17840967 -0.63199626] [-0.16005564 -0.30017124] [ 0.22537899 -0.40227124] [ 0.          0.08270378] [ 0.22537899  0.10822878] [ 0.06019272  0.15927878] [ 0.51904346  0.13375378] [-0.14170161  0.33795379] [ 0.29879511  0.08270378] [-0.34359594  0.21032879] [-0.25182579  0.36347879] [ 0.          0.15927878] [-0.10499355  0.4145288 ] [-0.0132234  0.4400538] [ 0.00513063  0.4655788 ] [ 0.09690078  0.61872881] [ 0.29879511  0.64425381] [ 0.3538572   0.92502882] [ 0.75764585  1.10370383] [ 0.75764585  1.10370383] [ 0.99624824  0.89950382] [ 0.97789421  0.4911038 ] [ 0.73929182  0.4655788 ] [ 0.73929182  0.26137879] [ 0.20702496  0.4911038 ] [ 0.20702496  0.23585379] [-0.12334758  0.08270378] [-0.52713623  0.36347879] [-0.04993146  0.15927878] [-0.30688788  0.23585379] [-0.52713623  0.31242879] [-0.36194997  0.28690379] [-0.25182579  0.28690379] [-0.39865803  0.31242879] [-0.25182579  0.23585379] [-0.32524191  0.18480379] [-0.23347176  0.5676788 ] [ 0.  0.] [ 0.  0.] [ 0.  0.] [ 0.  0.] [ 0.  0.] [ 0.  0.] [ 0.  0.] [ 0.  0.] [ 0.  0.] [ 0.  0.] [ 0.  0.] [ 0.  0.] [ 0.  0.] [ 0.  0.] [ 0.  0.] [ 0.  0.] [ 0.  0.] [ 0.  0.] [ 0.  0.] [ 0.  0.] [ 0.  0.] [ 0.  0.] [ 0.  0.] [ 0.  0.] [ 0.  0.] [ 0.  0.] [ 0.  0.] [ 0.  0.] [ 0.  0.] [ 0.  0.] [ 0.  0.] [ 0.  0.] [ 0.  0.] [ 0.  0.] [ 0.  0.] [ 0.  0.] [ 0.  0.] [ 0.  0.] [ 0.  0.] [ 0.  0.] [ 0.  0.] [ 0.  0.] [ 0.  0.] [ 0.  0.] [ 0.  0.] [ 0.  0.] [ 0.  0.] [ 0.  0.] [ 0.  0.] [ 0.  0.] [ 0.  0.] [ 0.  0.] [ 0.  0.] [ 0.  0.] [ 0.  0.] [ 0.  0.] [ 0.  0.] [ 0.  0.] [ 0.  0.] [ 0.  0.] [ 0.  0.] [ 0.  0.] [ 0.  0.] [ 0.  0.] [ 0.  0.] [ 0.  0.] [ 0.  0.] [ 0.  0.] [ 0.  0.] [ 0.  0.] [ 0.  0.] [ 0.  0.] [ 0.  0.] [ 0.  0.] [ 0.  0.] [ 0.  0.] [ 0.  0.] [ 0.  0.] [ 0.  0.]
[ 1.55604615 -0.81067127] [ 2.72152704 -1.37222129] [ 2.22596823  0.24861629] [ 1.87724167  0.59320381] [ 0.70258376  1.02712883] [-0.47207414  1.74182886] [-0.32524191  2.4820539 ] [ 0.          3.09465393] [-0.49042817  3.73277896] [-0.30688788  2.86492892] [-0.30688788  1.23132884] [-0.94927892  0.00612878] [-1.35306757 -0.17254623] [-1.33471354 -0.19807123] [-1.44483772 -0.22359624] [-1.31635951 -0.32569624] [-1.57331593 -0.27464624] [-1.49989981 -0.40227124] [-1.90368847 -0.27464624] [-1.51825384 -0.50437125] [-1.77521026 -0.42779625] [-1.79356429 -0.65752126] [-2.06887473 -0.78514626] [-2.12393682 -0.93829627] [-2.27076906 -1.01487128] [-2.36253921 -1.27012129] [-2.30747712 -1.39774629] [-2.34418518 -1.39774629] [-1.95875056 -1.60194631] [-1.83027235 -1.5253713 ] [-1.42648369 -1.37222129] [-0.60055235 -1.32117129] [-0.63726041 -1.14249628] [ 0.04183869 -0.88724627] [ 0.20702496 -0.65752126] [ 0.46398137 -0.55542125] [ 0.6658757  -0.22359624] [ 0.83106197 -0.17254623] [ 0.849416   -0.01939623] [ 0.90447809  0.21032879] [ 0.92283212  0.23585379] [ 0.88612406  0.3890038 ] [ 0.849416    0.28690379] [ 0.70258376  0.36347879] [ 0.68422973  0.4145288 ] [ 0.64752167  0.4145288 ] [ 0.57410555  0.31242879] [ 0.50068943  0.36347879] [ 0.51904346  0.3890038 ] [ 0.59245958  0.4400538 ] [ 0.70258376  0.31242879] [ 0.55575152  0.61872881] [ 0.99624824  0.77187881] [ 1.25320465  0.92502882] [ 1.25320465  1.05265383] [ 1.54686913  0.87397882] [ 1.60193122  0.69530381] [ 1.74876346  0.36347879] [ 1.7120554   0.28690379] [ 1.47345301  0.13375378] [ 1.19814256  0.21032879] [ 1.28991271  0.08270378] [ 1.54686913 -0.37674624] [ 1.54686913 -1.93377132] [ 1.51016107 -2.69952136] [ 1.8955957  -2.44427135] [ 0.90447809 -3.3886964 ] [ 0.  0.] [ 0.  0.] [ 0.  0.] [ 0.  0.] [ 0.  0.] [ 0.  0.] [ 0.  0.] [ 0.  0.] [ 0.  0.] [ 0.  0.] [ 0.  0.] [ 0.  0.] [ 0.  0.] [ 0.  0.] [ 0.  0.] [ 0.  0.] [ 0.  0.] [ 0.  0.] [ 0.  0.] [ 0.  0.] [ 0.  0.] [ 0.  0.] [ 0.  0.] [ 0.  0.] [ 0.  0.] [ 0.  0.] [ 0.  0.] [ 0.  0.] [ 0.  0.] [ 0.  0.] [ 0.  0.] [ 0.  0.] [ 0.  0.] [ 0.  0.] [ 0.  0.] [ 0.  0.] [ 0.  0.] [ 0.  0.] [ 0.  0.] [ 0.  0.] [ 0.  0.] [ 0.  0.] [ 0.  0.] [ 0.  0.] [ 0.  0.] [ 0.  0.] [ 0.  0.] [ 0.  0.] [ 0.  0.] [ 0.  0.] [ 0.  0.] [ 0.  0.] [ 0.  0.] [ 0.  0.] [ 0.  0.] [ 0.  0.] [ 0.  0.] [ 0.  0.] [ 0.  0.] [ 0.  0.] [ 0.  0.] [ 0.  0.] [ 0.  0.] [ 0.  0.] [ 0.  0.] [ 0.  0.] [ 0.  0.] [ 0.  0.] [ 0.  0.] [ 0.  0.] [ 0.  0.] [ 0.  0.] [ 0.  0.] [ 0.  0.] [ 0.  0.] [ 0.  0.] [ 0.  0.] [ 0.  0.] [ 0.  0.] [ 0.  0.] [ 0.  0.] [ 0.  0.] [ 0.  0.] [ 0.  0.] [ 0.  0.]
[ 1.8955957 -1.4998463] [ 2.48292465 -1.14249628] [ 1.47345301  0.4783413 ] [ 0.29879511  0.33795379] [-0.71067653  1.12922883] [-0.60055235  1.76735387] [-0.54549026  2.5075789 ] [-1.00434101  3.55410396] [-0.5087822   3.27332894] [-0.49042817  1.63972886] [-0.98598698  0.00612878] [-1.72014817 -0.32569624] [-1.5549619  -0.45332125] [-1.70179414 -0.60647125] [-1.79356429 -0.50437125] [-1.72014817 -0.45332125] [-1.9220425  -0.58094625] [-1.83027235 -0.60647125] [-2.08722876 -0.63199626] [-2.30747712 -0.73409626] [-2.54607951 -0.75962126] [-2.39924727 -0.86172127] [-2.7846819  -0.96382127] [-2.87645204 -1.16802128] [-3.02328428 -1.21907129] [-2.96822219 -1.39774629] [-2.98657622 -1.37222129] [-2.76632787 -1.37222129] [-2.71126578 -1.5253713 ] [-2.36253921 -1.4743213 ] [-2.01381265 -1.29564629] [-1.75685623 -1.24459629] [-1.31635951 -1.09144628] [-0.89421683 -0.93829627] [-0.67396847 -0.68304626] [-0.30688788 -0.60647125] [-0.21511773 -0.42779625] [ 0.09690078 -0.27464624] [ 0.06019272 -0.17254623] [ 0.26208705 -0.04492123] [ 0.26208705  0.        ] [ 0.13360884  0.18480379] [ 0.3538572   0.28690379] [ 0.24373302  0.23585379] [ 0.22537899  0.36347879] [ 0.28044108  0.3890038 ] [ 0.1703169   0.28690379] [ 0.1703169   0.23585379] [ 0.18867093  0.4400538 ] [ 0.46398137  0.31242879] [ 0.24373302  0.23585379] [ 0.42727331  0.31242879] [ 0.72093779  0.4400538 ] [ 0.99624824  0.61872881] [ 0.95954018  0.79740382] [ 1.38168286  0.72082881] [ 1.5285151  0.5421538] [ 1.67534734  0.21032879] [ 1.58357719 -0.01939623] [ 1.58357719 -0.01939623] [ 1.51016107 -1.24459629] [ 1.19814256 -2.26559634] [ 1.63863928 -2.72504636] [ 0.6658757  -2.52084635] [-0.5087822  -4.15444643] [ 0.  0.] [ 0.  0.] [ 0.  0.] [ 0.  0.] [ 0.  0.] [ 0.  0.] [ 0.  0.] [ 0.  0.] [ 0.  0.] [ 0.  0.] [ 0.  0.] [ 0.  0.] [ 0.  0.] [ 0.  0.] [ 0.  0.] [ 0.  0.] [ 0.  0.] [ 0.  0.] [ 0.  0.] [ 0.  0.] [ 0.  0.] [ 0.  0.] [ 0.  0.] [ 0.  0.] [ 0.  0.] [ 0.  0.] [ 0.  0.] [ 0.  0.] [ 0.  0.] [ 0.  0.] [ 0.  0.] [ 0.  0.] [ 0.  0.] [ 0.  0.] [ 0.  0.] [ 0.  0.] [ 0.  0.] [ 0.  0.] [ 0.  0.] [ 0.  0.] [ 0.  0.] [ 0.  0.] [ 0.  0.] [ 0.  0.] [ 0.  0.] [ 0.  0.] [ 0.  0.] [ 0.  0.] [ 0.  0.] [ 0.  0.] [ 0.  0.] [ 0.  0.] [ 0.  0.] [ 0.  0.] [ 0.  0.] [ 0.  0.] [ 0.  0.] [ 0.  0.] [ 0.  0.] [ 0.  0.] [ 0.  0.] [ 0.  0.] [ 0.  0.] [ 0.  0.] [ 0.  0.] [ 0.  0.] [ 0.  0.] [ 0.  0.] [ 0.  0.] [ 0.  0.] [ 0.  0.] [ 0.  0.] [ 0.  0.] [ 0.  0.] [ 0.  0.] [ 0.  0.] [ 0.  0.] [ 0.  0.] [ 0.  0.] [ 0.  0.] [ 0.  0.] [ 0.  0.] [ 0.  0.] [ 0.  0.] [ 0.  0.] [ 0.  0.] [ 0.  0.]
[ 0.51904346  0.31242879] [ 1.68452435 -0.65752126] [ 2.83165121 -1.70404631] [ 2.5746948  -0.08320873] [ 2.24432226  0.3890038 ] [ 1.06966436  0.4145288 ] [-0.10499355  1.28237884] [-0.39865803  2.09917888] [ 0.00513063  2.78835392] [-0.60055235  4.01355398] [-0.12334758  3.27332894] [-0.36194997  1.63972886] [-0.63726041  0.00612878] [-1.16952728 -0.19807123] [-1.35306757 -0.35122124] [-1.42648369 -0.35122124] [-1.59166996 -0.40227124] [-1.66508608 -0.45332125] [-1.72014817 -0.37674624] [-1.90368847 -0.42779625] [-2.05052071 -0.47884625] [-2.234061   -0.47884625] [-2.39924727 -0.63199626] [-2.43595533 -0.73409626] [-2.65620369 -0.81067127] [-2.56443354 -1.06592128] [-2.71126578 -1.14249628] [-2.63784966 -1.19354628] [-2.45430936 -1.21907129] [-2.17899891 -1.29564629] [-1.70179414 -1.19354628] [-1.48154578 -1.11697128] [-0.93092489 -1.04039628] [-0.47207414 -0.81067127] [-0.21511773 -0.81067127] [-0.21511773 -0.68304626] [ 0.04183869 -0.40227124] [ 0.40891928 -0.30017124] [ 0.33550317 -0.04492123] [ 0.70258376  0.13375378] [ 0.55575152  0.15927878] [ 0.79435391  0.23585379] [ 0.61081361  0.23585379] [ 0.40891928  0.4145288 ] [ 0.59245958  0.23585379] [ 0.50068943  0.23585379] [ 0.18867093  0.4145288 ] [ 0.61081361  0.28690379] [ 0.42727331  0.4400538 ] [ 0.64752167  0.31242879] [ 0.53739749  0.33795379] [ 0.79435391  0.79740382] [ 1.27155868  0.84845382] [ 1.36332883  0.74635381] [ 1.56522316  0.77187881] [ 1.7120554  0.4145288] [ 1.78547152  0.28690379] [ 1.7120554   0.26137879] [ 1.51016107  0.18480379] [ 1.17978853  0.26137879] [ 1.28991271  0.21032879] [ 1.16143451  0.21032879] [ 1.38168286  0.18480379] [ 1.21649659  0.3890038 ] [ 1.23485062  0.28690379] [ 1.12472645  0.33795379] [ 1.19814256  0.4145288 ] [ 1.23485062  0.31242879] [ 0.83106197  0.3890038 ] [ 1.23485062  0.4400538 ] [ 1.01460227  0.87397882] [ 0.  0.] [ 0.  0.] [ 0.  0.] [ 0.  0.] [ 0.  0.] [ 0.  0.] [ 0.  0.] [ 0.  0.] [ 0.  0.] [ 0.  0.] [ 0.  0.] [ 0.  0.] [ 0.  0.] [ 0.  0.] [ 0.  0.] [ 0.  0.] [ 0.  0.] [ 0.  0.] [ 0.  0.] [ 0.  0.] [ 0.  0.] [ 0.  0.] [ 0.  0.] [ 0.  0.] [ 0.  0.] [ 0.  0.] [ 0.  0.] [ 0.  0.] [ 0.  0.] [ 0.  0.] [ 0.  0.] [ 0.  0.] [ 0.  0.] [ 0.  0.] [ 0.  0.] [ 0.  0.] [ 0.  0.] [ 0.  0.] [ 0.  0.] [ 0.  0.] [ 0.  0.] [ 0.  0.] [ 0.  0.] [ 0.  0.] [ 0.  0.] [ 0.  0.] [ 0.  0.] [ 0.  0.] [ 0.  0.] [ 0.  0.] [ 0.  0.] [ 0.  0.] [ 0.  0.] [ 0.  0.] [ 0.  0.] [ 0.  0.] [ 0.  0.] [ 0.  0.] [ 0.  0.] [ 0.  0.] [ 0.  0.] [ 0.  0.] [ 0.  0.] [ 0.  0.] [ 0.  0.] [ 0.  0.] [ 0.  0.] [ 0.  0.] [ 0.  0.] [ 0.  0.] [ 0.  0.] [ 0.  0.] [ 0.  0.] [ 0.  0.] [ 0.  0.] [ 0.  0.] [ 0.  0.] [ 0.  0.] [ 0.  0.] [ 0.  0.] [ 0.  0.]
[-0.76573862  3.12017893] [-0.96763295  4.21775399] [-0.89421683  3.75830397] [-0.89421683  2.12470388] [-0.60055235  0.4911038 ] [-1.64673205 -0.27464624] [-1.68344011 -0.32569624] [-1.77521026 -0.27464624] [-1.53660787 -0.35122124] [-2.08722876 -0.47884625] [-1.7385022  -0.63199626] [-1.61002399 -0.47884625] [-2.38089324 -0.55542125] [-2.34418518 -0.70857126] [-2.4176013  -0.75962126] [-2.27076906 -0.86172127] [-2.4176013  -1.14249628] [-2.47266339 -1.14249628] [-2.30747712 -1.37222129] [-2.08722876 -1.5253713 ] [-2.52772548 -1.75509631] [-1.79356429 -1.65299631] [-1.35306757 -1.83167132] [-1.15117325 -1.70404631] [-0.47207414 -1.4998463 ] [-0.34359594 -1.29564629] [ 0.15196287 -1.09144628] [ 0.28044108 -0.78514626] [ 0.92283212 -0.63199626] [ 0.68422973 -0.40227124] [ 0.81270794 -0.27464624] [ 1.08801839 -0.14702123] [ 0.62916764 -0.04492123] [ 1.0329563  0.       ] [ 0.61081361  0.08270378] [ 0.79435391  0.05717878] [ 0.44562734  0.18480379] [ 0.75764585 -0.01939623] [ 0.33550317  0.05717878] [ 0.37221122  0.00612878] [ 0.09690078  0.23585379] [ 0.28044108  0.08270378] [ 0.99624824  0.4145288 ] [ 0.68422973  0.59320381] [ 1.28991271  0.69530381] [ 1.30826674  0.59320381] [ 1.43674495  0.26137879] [ 1.78547152  0.00612878] [ 1.65699331  0.05717878] [ 1.54686913 -0.07044623] [ 1.36332883  0.        ] [ 1.40003689  0.00612878] [ 1.25320465 -0.07044623] [ 1.3449748  -0.07044623] [ 1.3449748   0.00612878] [ 1.43674495 -0.09597123] [ 0.90447809  0.00612878] [ 1.01460227  0.05717878] [ 1.14308048  0.        ] [ 1.19814256  0.08270378] [ 0.95954018 -0.01939623] [ 1.06966436  0.3890038 ] [ 0.  0.] [ 0.  0.] [ 0.  0.] [ 0.  0.] [ 0.  0.] [ 0.  0.] [ 0.  0.] [ 0.  0.] [ 0.  0.] [ 0.  0.] [ 0.  0.] [ 0.  0.] [ 0.  0.] [ 0.  0.] [ 0.  0.] [ 0.  0.] [ 0.  0.] [ 0.  0.] [ 0.  0.] [ 0.  0.] [ 0.  0.] [ 0.  0.] [ 0.  0.] [ 0.  0.] [ 0.  0.] [ 0.  0.] [ 0.  0.] [ 0.  0.] [ 0.  0.] [ 0.  0.] [ 0.  0.] [ 0.  0.] [ 0.  0.] [ 0.  0.] [ 0.  0.] [ 0.  0.] [ 0.  0.] [ 0.  0.] [ 0.  0.] [ 0.  0.] [ 0.  0.] [ 0.  0.] [ 0.  0.] [ 0.  0.] [ 0.  0.] [ 0.  0.] [ 0.  0.] [ 0.  0.] [ 0.  0.] [ 0.  0.] [ 0.  0.] [ 0.  0.] [ 0.  0.] [ 0.  0.] [ 0.  0.] [ 0.  0.] [ 0.  0.] [ 0.  0.] [ 0.  0.] [ 0.  0.] [ 0.  0.] [ 0.  0.] [ 0.  0.] [ 0.  0.] [ 0.  0.] [ 0.  0.] [ 0.  0.] [ 0.  0.] [ 0.  0.] [ 0.  0.] [ 0.  0.] [ 0.  0.] [ 0.  0.] [ 0.  0.] [ 0.  0.] [ 0.  0.] [ 0.  0.] [ 0.  0.] [ 0.  0.] [ 0.  0.] [ 0.  0.] [ 0.  0.] [ 0.  0.] [ 0.  0.] [ 0.  0.] [ 0.  0.] [ 0.  0.] [ 0.  0.] [ 0.  0.] [ 0.  0.]
[ 1.14308048  0.15927878] [ 1.58357719  0.26137879] [ 2.59304883 -0.93829627] [ 3.75852972 -1.34669629] [ 3.05189957  0.27414129] [ 1.87724167  0.23585379] [ 0.70258376  1.28237884] [-0.39865803  2.02260388] [-0.08663952  2.71177891] [-0.36194997  3.78382897] [-0.25182579  3.73277896] [-0.03157743  2.09917888] [-0.78409265  0.4655788 ] [-0.80244668 -0.24912124] [-1.04104907 -0.24912124] [-0.96763295 -0.37674624] [-1.04104907 -0.42779625] [-1.11446519 -0.47884625] [-1.44483772 -0.37674624] [-1.44483772 -0.58094625] [-1.75685623 -0.47884625] [-1.83027235 -0.50437125] [-1.75685623 -0.55542125] [-2.234061   -0.63199626] [-2.03216668 -0.70857126] [-2.30747712 -0.73409626] [-2.30747712 -0.83619627] [-2.19735294 -0.88724627] [-2.10558279 -0.96382127] [-1.97710459 -1.01487128] [-1.84862638 -1.06592128] [-1.49989981 -1.01487128] [-1.18788131 -1.04039628] [-1.00434101 -0.78514626] [-0.5087822  -0.70857126] [-0.28853385 -0.70857126] [-0.21511773 -0.52989625] [ 0.24373302 -0.42779625] [ 0.06019272 -0.52989625] [ 0.20702496 -0.40227124] [ 0.1703169  -0.32569624] [ 0.26208705 -0.30017124] [ 0.24373302  0.13375378] [ 0.61081361  0.00612878] [ 0.29879511  0.21032879] [ 0.64752167  0.10822878] [ 0.39056525  0.28690379] [ 0.28044108  0.4655788 ] [ 0.59245958  0.4145288 ] [ 0.73929182  0.13375378] [ 0.68422973  0.05717878] [ 0.73929182  0.00612878] [ 0.31714914  0.        ] [ 0.29879511  0.05717878] [ 0.29879511 -0.04492123] [ 0.53739749  0.00612878] [ 0.50068943 -0.01939623] [ 0.40891928  0.05717878] [ 0.37221122  0.08270378] [ 0.46398137  0.15927878] [ 0.55575152  0.3890038 ] [ 0.  0.] [ 0.  0.] [ 0.  0.] [ 0.  0.] [ 0.  0.] [ 0.  0.] [ 0.  0.] [ 0.  0.] [ 0.  0.] [ 0.  0.] [ 0.  0.] [ 0.  0.] [ 0.  0.] [ 0.  0.] [ 0.  0.] [ 0.  0.] [ 0.  0.] [ 0.  0.] [ 0.  0.] [ 0.  0.] [ 0.  0.] [ 0.  0.] [ 0.  0.] [ 0.  0.] [ 0.  0.] [ 0.  0.] [ 0.  0.] [ 0.  0.] [ 0.  0.] [ 0.  0.] [ 0.  0.] [ 0.  0.] [ 0.  0.] [ 0.  0.] [ 0.  0.] [ 0.  0.] [ 0.  0.] [ 0.  0.] [ 0.  0.] [ 0.  0.] [ 0.  0.] [ 0.  0.] [ 0.  0.] [ 0.  0.] [ 0.  0.] [ 0.  0.] [ 0.  0.] [ 0.  0.] [ 0.  0.] [ 0.  0.] [ 0.  0.] [ 0.  0.] [ 0.  0.] [ 0.  0.] [ 0.  0.] [ 0.  0.] [ 0.  0.] [ 0.  0.] [ 0.  0.] [ 0.  0.] [ 0.  0.] [ 0.  0.] [ 0.  0.] [ 0.  0.] [ 0.  0.] [ 0.  0.] [ 0.  0.] [ 0.  0.] [ 0.  0.] [ 0.  0.] [ 0.  0.] [ 0.  0.] [ 0.  0.] [ 0.  0.] [ 0.  0.] [ 0.  0.] [ 0.  0.] [ 0.  0.] [ 0.  0.] [ 0.  0.] [ 0.  0.] [ 0.  0.] [ 0.  0.] [ 0.  0.] [ 0.  0.] [ 0.  0.] [ 0.  0.] [ 0.  0.] [ 0.  0.] [ 0.  0.] [ 0.  0.]
[ 1.74876346 -0.63199626] [ 2.72152704 -1.75509631] [ 3.32721002 -0.58094625] [ 2.62975689  0.15927878] [ 1.45509898 -0.01939623] [ 0.28044108  0.95055382] [-0.380304    1.84392887] [ 0.53739749  2.4820539 ] [-0.43536609  3.68172896] [ 0.          3.04360393] [-0.03157743  1.41000385] [-0.72903056 -0.22359624] [-1.11446519 -0.52989625] [-1.07775713 -0.60647125] [-1.3714216  -0.52989625] [-1.20623534 -0.65752126] [-1.09611116 -0.68304626] [-1.86698041 -0.68304626] [-1.68344011 -0.70857126] [-1.94039653 -0.78514626] [-1.86698041 -0.60647125] [-1.51825384 -0.86172127] [-2.21570697 -0.88724627] [-2.16064488 -0.98934627] [-1.9220425  -0.96382127] [-2.12393682 -0.96382127] [-1.84862638 -1.21907129] [-1.88533444 -1.29564629] [-1.99545862 -1.34669629] [-1.59166996 -1.29564629] [-1.20623534 -1.34669629] [-0.82080071 -1.21907129] [-0.5087822  -1.29564629] [-0.27017982 -1.16802128] [ 0.1703169  -0.91277127] [ 0.33550317 -0.86172127] [ 0.75764585 -0.86172127] [ 0.83106197 -0.63199626] [ 1.08801839 -0.50437125] [ 1.05131033 -0.42779625] [ 1.12472645 -0.19807123] [ 1.27155868 -0.22359624] [ 1.28991271 -0.40227124] [ 1.08801839 -0.12149623] [ 1.06966436 -0.22359624] [ 0.94118615 -0.17254623] [ 0.81270794 -0.12149623] [ 0.90447809 -0.09597123] [ 0.849416   -0.09597123] [ 1.06966436 -0.07044623] [ 1.06966436 -0.04492123] [ 1.14308048 -0.07044623] [ 1.21649659  0.        ] [ 1.27155868 -0.07044623] [ 1.25320465 -0.12149623] [ 1.36332883 -0.19807123] [ 1.16143451  0.00612878] [ 1.85888764 -0.01939623] [ 1.80382555 -0.01939623] [ 0.77599988 -0.47884625] [-0.39865803 -1.11697128] [-1.57331593 -2.75057136] [ 0.  0.] [ 0.  0.] [ 0.  0.] [ 0.  0.] [ 0.  0.] [ 0.  0.] [ 0.  0.] [ 0.  0.] [ 0.  0.] [ 0.  0.] [ 0.  0.] [ 0.  0.] [ 0.  0.] [ 0.  0.] [ 0.  0.] [ 0.  0.] [ 0.  0.] [ 0.  0.] [ 0.  0.] [ 0.  0.] [ 0.  0.] [ 0.  0.] [ 0.  0.] [ 0.  0.] [ 0.  0.] [ 0.  0.] [ 0.  0.] [ 0.  0.] [ 0.  0.] [ 0.  0.] [ 0.  0.] [ 0.  0.] [ 0.  0.] [ 0.  0.] [ 0.  0.] [ 0.  0.] [ 0.  0.] [ 0.  0.] [ 0.  0.] [ 0.  0.] [ 0.  0.] [ 0.  0.] [ 0.  0.] [ 0.  0.] [ 0.  0.] [ 0.  0.] [ 0.  0.] [ 0.  0.] [ 0.  0.] [ 0.  0.] [ 0.  0.] [ 0.  0.] [ 0.  0.] [ 0.  0.] [ 0.  0.] [ 0.  0.] [ 0.  0.] [ 0.  0.] [ 0.  0.] [ 0.  0.] [ 0.  0.] [ 0.  0.] [ 0.  0.] [ 0.  0.] [ 0.  0.] [ 0.  0.] [ 0.  0.] [ 0.  0.] [ 0.  0.] [ 0.  0.] [ 0.  0.] [ 0.  0.] [ 0.  0.] [ 0.  0.] [ 0.  0.] [ 0.  0.] [ 0.  0.] [ 0.  0.] [ 0.  0.] [ 0.  0.] [ 0.  0.] [ 0.  0.] [ 0.  0.] [ 0.  0.] [ 0.  0.] [ 0.  0.] [ 0.  0.] [ 0.  0.] [ 0.  0.] [ 0.  0.]
[ 0.53739749  0.33795379] [ 1.30826674 -0.07044623] [ 2.22596823 -1.37222129] [ 3.05189957 -1.06592128] [ 2.04242793  0.5549163 ] [ 0.86777003  0.4911038 ] [-0.30688788  1.38447885] [-0.14170161  2.30337889] [ 0.3538572   3.17122894] [ 0.06019272  4.421954  ] [ 0.22537899  4.06460398] [ 0.24373302  2.4310039 ] [-0.03157743  0.79740382] [-0.6923225  -0.07044623] [-0.60055235 -0.22359624] [-0.85750877 -0.14702123] [-0.74738459 -0.07044623] [-0.74738459 -0.24912124] [-0.96763295 -0.19807123] [-1.04104907 -0.32569624] [-1.13281922 -0.30017124] [-1.59166996 -0.47884625] [-1.77521026 -0.50437125] [-2.01381265 -0.52989625] [-2.32583115 -0.75962126] [-2.49101742 -1.14249628] [-3.07834637 -1.01487128] [-2.74797384 -1.24459629] [-2.83974399 -1.32117129] [-2.52772548 -1.39774629] [-2.32583115 -1.39774629] [-1.84862638 -1.5764213 ] [-1.57331593 -1.27012129] [-0.72903056 -1.27012129] [-0.47207414 -1.06592128] [-0.06828549 -0.73409626] [ 0.31714914 -0.75962126] [ 0.33550317 -0.42779625] [ 0.77599988 -0.22359624] [ 0.83106197 -0.24912124] [ 0.72093779  0.00612878] [ 0.95954018  0.08270378] [ 0.86777003  0.21032879] [ 0.95954018  0.18480379] [ 0.75764585  0.21032879] [ 0.59245958  0.21032879] [ 0.62916764  0.26137879] [ 0.62916764  0.4145288 ] [ 0.51904346  0.31242879] [ 0.46398137  0.28690379] [ 0.42727331  0.4400538 ] [ 0.55575152  0.4400538 ] [ 0.55575152  0.4400538 ] [ 0.57410555  0.74635381] [ 0.72093779  0.82292882] [ 0.70258376  1.15475383] [ 0.90447809  1.18027884] [ 1.28991271  1.05265383] [ 1.45509898  0.72082881] [ 1.08801839  0.4655788 ] [ 1.05131033  0.36347879] [ 0.97789421  0.36347879] [ 0.29879511  0.33795379] [ 0.40891928  0.15927878] [ 0.15196287  0.28690379] [ 0.37221122  0.31242879] [ 0.11525481  0.3890038 ] [-0.04993146  0.31242879] [-0.1967637  0.4655788] [-0.36194997  0.4911038 ] [ 0.20702496  0.5676788 ] [ 0.00513063  0.69530381] [ 0.11525481  0.59320381] [ 0.15196287  0.84845382] [ 0.  0.] [ 0.  0.] [ 0.  0.] [ 0.  0.] [ 0.  0.] [ 0.  0.] [ 0.  0.] [ 0.  0.] [ 0.  0.] [ 0.  0.] [ 0.  0.] [ 0.  0.] [ 0.  0.] [ 0.  0.] [ 0.  0.] [ 0.  0.] [ 0.  0.] [ 0.  0.] [ 0.  0.] [ 0.  0.] [ 0.  0.] [ 0.  0.] [ 0.  0.] [ 0.  0.] [ 0.  0.] [ 0.  0.] [ 0.  0.] [ 0.  0.] [ 0.  0.] [ 0.  0.] [ 0.  0.] [ 0.  0.] [ 0.  0.] [ 0.  0.] [ 0.  0.] [ 0.  0.] [ 0.  0.] [ 0.  0.] [ 0.  0.] [ 0.  0.] [ 0.  0.] [ 0.  0.] [ 0.  0.] [ 0.  0.] [ 0.  0.] [ 0.  0.] [ 0.  0.] [ 0.  0.] [ 0.  0.] [ 0.  0.] [ 0.  0.] [ 0.  0.] [ 0.  0.] [ 0.  0.] [ 0.  0.] [ 0.  0.] [ 0.  0.] [ 0.  0.] [ 0.  0.] [ 0.  0.] [ 0.  0.] [ 0.  0.] [ 0.  0.] [ 0.  0.] [ 0.  0.] [ 0.  0.] [ 0.  0.] [ 0.  0.] [ 0.  0.] [ 0.  0.] [ 0.  0.] [ 0.  0.] [ 0.  0.] [ 0.  0.] [ 0.  0.] [ 0.  0.] [ 0.  0.] [ 0.  0.]
[ 0.46398137  0.28690379] [ 1.10637242 -0.04492123] [ 1.96901182 -1.4232713 ] [ 2.97848345 -1.11697128] [ 2.15255211  0.5038663 ] [ 0.97789421  0.4400538 ] [-0.1967637   1.35895384] [-0.39865803  2.07365388] [ 0.02348466  2.71177891] [-0.32524191  3.88592897] [-0.06828549  3.75830397] [-0.30688788  2.12470388] [-0.61890638  0.4911038 ] [-1.20623534 -0.04492123] [-1.20623534 -0.22359624] [-1.44483772 -0.22359624] [-1.40812966 -0.22359624] [-1.3714216  -0.24912124] [-1.59166996 -0.30017124] [-1.79356429 -0.30017124] [-1.90368847 -0.32569624] [-2.03216668 -0.45332125] [-2.21570697 -0.40227124] [-2.45430936 -0.52989625] [-2.58278757 -0.60647125] [-2.83974399 -0.63199626] [-2.93151413 -0.86172127] [-2.98657622 -0.93829627] [-2.89480607 -1.01487128] [-2.83974399 -1.11697128] [-2.7846819  -1.16802128] [-2.28912309 -1.09144628] [-1.84862638 -1.21907129] [-1.46319175 -1.06592128] [-1.13281922 -0.78514626] [-0.56384429 -0.78514626] [-0.28853385 -0.55542125] [-0.14170161 -0.37674624] [-0.12334758 -0.27464624] [ 0.20702496 -0.19807123] [ 0.24373302  0.00612878] [ 0.31714914  0.00612878] [ 0.04183869  0.15927878] [ 0.39056525  0.33795379] [ 0.51904346  0.26137879] [ 0.33550317  0.4655788 ] [ 0.29879511  0.4400538 ] [ 0.31714914  0.4400538 ] [ 0.15196287  0.3890038 ] [ 0.40891928  0.4911038 ] [ 0.4823354  0.3890038] [ 0.31714914  0.4655788 ] [ 0.6658757   0.59320381] [ 0.64752167  0.5421538 ] [ 0.59245958  0.5676788 ] [ 0.86777003  0.84845382] [ 1.01460227  1.05265383] [ 1.38168286  1.28237884] [ 1.47345301  1.25685384] [ 1.60193122  1.18027884] [ 1.63863928  1.05265383] [ 1.67534734  0.79740382] [ 1.38168286  0.61872881] [ 1.25320465  0.5676788 ] [ 0.97789421  0.5166288 ] [ 0.86777003  0.4655788 ] [ 0.73929182  0.4145288 ] [ 0.95954018  0.4655788 ] [ 1.05131033  0.4911038 ] [ 0.72093779  0.13375378] [ 0.18867093  0.36347879] [ 0.22537899  0.26137879] [ 0.28044108  0.26137879] [ 0.31714914  0.21032879] [-0.14170161  0.26137879] [ 0.00513063  0.23585379] [ 0.1703169  0.4655788] [ 0.33550317  0.72082881] [ 0.  0.] [ 0.  0.] [ 0.  0.] [ 0.  0.] [ 0.  0.] [ 0.  0.] [ 0.  0.] [ 0.  0.] [ 0.  0.] [ 0.  0.] [ 0.  0.] [ 0.  0.] [ 0.  0.] [ 0.  0.] [ 0.  0.] [ 0.  0.] [ 0.  0.] [ 0.  0.] [ 0.  0.] [ 0.  0.] [ 0.  0.] [ 0.  0.] [ 0.  0.] [ 0.  0.] [ 0.  0.] [ 0.  0.] [ 0.  0.] [ 0.  0.] [ 0.  0.] [ 0.  0.] [ 0.  0.] [ 0.  0.] [ 0.  0.] [ 0.  0.] [ 0.  0.] [ 0.  0.] [ 0.  0.] [ 0.  0.] [ 0.  0.] [ 0.  0.] [ 0.  0.] [ 0.  0.] [ 0.  0.] [ 0.  0.] [ 0.  0.] [ 0.  0.] [ 0.  0.] [ 0.  0.] [ 0.  0.] [ 0.  0.] [ 0.  0.] [ 0.  0.] [ 0.  0.] [ 0.  0.] [ 0.  0.] [ 0.  0.] [ 0.  0.] [ 0.  0.] [ 0.  0.] [ 0.  0.] [ 0.  0.] [ 0.  0.] [ 0.  0.] [ 0.  0.] [ 0.  0.] [ 0.  0.] [ 0.  0.] [ 0.  0.] [ 0.  0.] [ 0.  0.] [ 0.  0.] [ 0.  0.] [ 0.  0.] [ 0.  0.]
[ 0.44562734  0.26137879] [ 0.849416    0.08270378] [ 1.80382555 -0.55542125] [ 2.83165121 -1.5253713 ] [ 3.32721002 -0.37674624] [ 2.64811092  0.64425381] [ 1.47345301  0.26137879] [ 0.29879511  1.33342884] [ 0.06019272  1.92050387] [ 0.50068943  2.58415391] [-0.25182579  3.65620396] [-0.0132234   3.14570393] [-0.03157743  1.51210385] [-0.34359594 -0.12149623] [-1.38977563 -0.19807123] [-1.07775713 -0.42779625] [-1.16952728 -0.58094625] [-1.5549619  -0.32569624] [-1.20623534 -0.63199626] [-1.81191832 -0.60647125] [-1.66508608 -0.78514626] [-2.01381265 -0.63199626] [-2.45430936 -0.91277127] [-2.71126578 -0.50437125] [-2.19735294 -0.86172127] [-2.74797384 -1.01487128] [-3.07834637 -0.98934627] [-2.9131601  -1.11697128] [-2.72961981 -1.37222129] [-2.7846819 -1.5764213] [-3.17011652 -1.4743213 ] [-2.16064488 -1.5764213 ] [-1.95875056 -1.65299631] [-1.42648369 -1.60194631] [-1.00434101 -1.37222129] [-0.5087822  -1.29564629] [-0.1967637  -1.16802128] [ 0.04183869 -0.96382127] [ 0.13360884 -0.78514626] [ 0.3538572  -0.55542125] [ 0.57410555 -0.37674624] [ 0.81270794 -0.27464624] [ 0.77599988 -0.09597123] [ 0.79435391 -0.09597123] [ 0.81270794 -0.07044623] [ 0.73929182  0.05717878] [ 0.79435391 -0.01939623] [ 0.68422973  0.05717878] [ 0.79435391  0.23585379] [ 1.06966436  0.15927878] [ 0.70258376  0.08270378] [ 0.849416    0.15927878] [ 0.94118615  0.23585379] [ 0.99624824  0.23585379] [ 0.99624824  0.23585379] [ 0.97789421  0.28690379] [ 1.06966436  0.31242879] [ 1.16143451  0.31242879] [ 1.14308048  0.5676788 ] [ 1.30826674  0.82292882] [ 1.45509898  0.5166288 ] [ 1.38168286  0.59320381] [ 1.54686913  0.05717878] [ 1.40003689  0.00612878] [ 1.14308048  0.15927878] [ 1.12472645 -0.12149623] [ 0.75764585 -0.14702123] [ 0.73929182 -0.04492123] [ 0.73929182 -0.07044623] [ 0.6658757  -0.12149623] [ 0.6658757  -0.04492123] [ 0.53739749  0.        ] [ 0.62916764 -0.12149623] [ 0.42727331  0.00612878] [ 0.4823354  -0.14702123] [ 0.46398137  0.13375378] [ 0.61081361  0.10822878] [ 0.51904346  0.13375378] [ 0.  0.] [ 0.  0.] [ 0.  0.] [ 0.  0.] [ 0.  0.] [ 0.  0.] [ 0.  0.] [ 0.  0.] [ 0.  0.] [ 0.  0.] [ 0.  0.] [ 0.  0.] [ 0.  0.] [ 0.  0.] [ 0.  0.] [ 0.  0.] [ 0.  0.] [ 0.  0.] [ 0.  0.] [ 0.  0.] [ 0.  0.] [ 0.  0.] [ 0.  0.] [ 0.  0.] [ 0.  0.] [ 0.  0.] [ 0.  0.] [ 0.  0.] [ 0.  0.] [ 0.  0.] [ 0.  0.] [ 0.  0.] [ 0.  0.] [ 0.  0.] [ 0.  0.] [ 0.  0.] [ 0.  0.] [ 0.  0.] [ 0.  0.] [ 0.  0.] [ 0.  0.] [ 0.  0.] [ 0.  0.] [ 0.  0.] [ 0.  0.] [ 0.  0.] [ 0.  0.] [ 0.  0.] [ 0.  0.] [ 0.  0.] [ 0.  0.] [ 0.  0.] [ 0.  0.] [ 0.  0.] [ 0.  0.] [ 0.  0.] [ 0.  0.] [ 0.  0.] [ 0.  0.] [ 0.  0.] [ 0.  0.] [ 0.  0.] [ 0.  0.] [ 0.  0.] [ 0.  0.] [ 0.  0.] [ 0.  0.] [ 0.  0.] [ 0.  0.] [ 0.  0.] [ 0.  0.] [ 0.  0.] [ 0.  0.] [ 0.  0.]
